"adjRatio","buyCount","buyForeignQuantity","buyForeignValue","buyQuantity","currentForeignRoom","date","dealVolume","priceAverage","priceBasic","priceClose","priceHigh","priceLow","priceOpen","propTradingNetDealValue","propTradingNetPTValue","propTradingNetValue","putthroughValue","putthroughVolume","sellCount","sellForeignQuantity","sellForeignValue","sellQuantity","symbol","totalValue"
1,0,0,0,0,2545324,"2018-12-19T00:00:00",0,1.1,1.1,1.1,1.1,1.1,1.1,,,,0,0,0,0,0,0,"PPG",0
1,0,0,0,0,2545324,"2018-12-18T00:00:00",0,1.1,1.1,1.1,1.1,1.1,1.1,,,,0,0,0,0,0,0,"PPG",0
1,0,0,0,0,2545324,"2018-12-17T00:00:00",0,1.1,1.1,1.1,1.1,1.1,1.1,,,,0,0,0,0,0,0,"PPG",0
1,0,0,0,51600,2545324,"2018-12-14T00:00:00",40500,1.0733333333333333,1,1.1,1.1,0.9,1,,,,0,0,0,0,0,40500,"PPG",43470000
1,0,0,0,0,2545324,"2018-12-13T00:00:00",0,1,1,1,1,1,1,,,,0,0,0,0,0,0,"PPG",0
1,0,0,0,0,2545324,"2018-12-12T00:00:00",0,1,1,1,1,1,1,,,,0,0,0,0,0,0,"PPG",0
1,0,0,0,0,2545324,"2018-12-11T00:00:00",0,1,1,1,1,1,1,,,,0,0,0,0,0,0,"PPG",0
1,0,0,0,0,2545324,"2018-12-10T00:00:00",0,1,1,1,1,1,1,,,,0,0,0,0,0,0,"PPG",0
1,0,0,0,0,2545324,"2018-12-07T00:00:00",0,1,1,1,1,1,1,,,,0,0,0,0,0,100,"PPG",0
1,0,0,0,0,2545324,"2018-12-06T00:00:00",0,1,1,1,1,1,1,,,,0,0,0,0,0,0,"PPG",0
1,0,0,0,0,2545324,"2018-12-05T00:00:00",0,1,1,1,1,1,1,,,,0,0,0,0,0,0,"PPG",0
1,0,0,0,0,2545324,"2018-12-04T00:00:00",0,1,1,1,1,1,1,,,,0,0,0,0,0,0,"PPG",0
1,0,0,0,0,2545324,"2018-12-03T00:00:00",0,1,1,1,1,1,1,,,,0,0,0,0,0,0,"PPG",0
1,0,0,0,0,2545324,"2018-11-30T00:00:00",0,1,1,1,1,1,1,,,,0,0,0,0,0,0,"PPG",0
1,0,0,0,0,2545324,"2018-11-29T00:00:00",0,1,1,1,1,1,1,,,,0,0,0,0,0,0,"PPG",0
1,0,0,0,0,2545324,"2018-11-28T00:00:00",0,1,1,1,1,1,1,,,,0,0,0,0,0,0,"PPG",0
1,0,0,0,0,2545324,"2018-11-27T00:00:00",0,1,1,1,1,1,1,,,,0,0,0,0,0,0,"PPG",0
1,0,0,0,0,2545324,"2018-11-26T00:00:00",0,1,1,1,1,1,1,,,,0,0,0,0,0,0,"PPG",0
1,0,0,0,0,2545324,"2018-11-23T00:00:00",0,1,1,1,1,1,1,,,,0,0,0,0,0,0,"PPG",0
1,0,0,0,0,2545324,"2018-11-22T00:00:00",0,1,1,1,1,1,1,,,,0,0,0,0,0,0,"PPG",0
1,0,0,0,0,2545324,"2018-11-21T00:00:00",0,1,1,1,1,1,1,,,,0,0,0,0,0,0,"PPG",0
1,0,0,0,0,2545324,"2018-11-20T00:00:00",0,1,1,1,1,1,1,,,,0,0,0,0,0,0,"PPG",0
1,0,0,0,0,2545324,"2018-11-19T00:00:00",0,1,1,1,1,1,1,,,,0,0,0,0,0,0,"PPG",0
1,0,0,0,0,2545324,"2018-11-16T00:00:00",0,1,1,1,1,1,1,,,,0,0,0,0,0,0,"PPG",0
1,0,0,0,0,2545324,"2018-11-15T00:00:00",0,1,1,1,1,1,1,,,,0,0,0,0,0,0,"PPG",0
1,0,0,0,0,2545324,"2018-11-14T00:00:00",0,1,1,1,1,1,1,,,,0,0,0,0,0,0,"PPG",0
1,0,0,0,0,2545324,"2018-11-13T00:00:00",0,1,1,1,1,1,1,,,,0,0,0,0,0,0,"PPG",0
1,0,0,0,0,2545324,"2018-11-12T00:00:00",0,1,1,1,1,1,1,,,,0,0,0,0,0,0,"PPG",0
1,0,0,0,0,2545324,"2018-11-09T00:00:00",0,1,1,1,1,1,1,,,,0,0,0,0,0,800,"PPG",0
1,0,0,0,0,2545324,"2018-11-08T00:00:00",0,1,1,1,1,1,1,,,,0,0,0,0,0,0,"PPG",0
1,0,0,0,0,2545324,"2018-11-07T00:00:00",0,1,1,1,1,1,1,,,,0,0,0,0,0,0,"PPG",0
1,0,0,0,0,2545324,"2018-11-06T00:00:00",0,1,1,1,1,1,1,,,,0,0,0,0,0,0,"PPG",0
1,0,0,0,0,2545324,"2018-11-05T00:00:00",0,1,1,1,1,1,1,,,,0,0,0,0,0,0,"PPG",0
1,0,0,0,0,2545324,"2018-11-02T00:00:00",0,1,1,1,1,1,1,,,,0,0,0,0,0,0,"PPG",0
1,0,0,0,0,2545324,"2018-11-01T00:00:00",0,1,1,1,1,1,1,,,,0,0,0,0,0,0,"PPG",0
1,0,0,0,0,2545324,"2018-10-31T00:00:00",0,1,1,1,1,1,1,,,,0,0,0,0,0,0,"PPG",0
1,0,0,0,0,2545324,"2018-10-30T00:00:00",0,1,1,1,1,1,1,,,,0,0,0,0,0,0,"PPG",0
1,0,0,0,0,2545324,"2018-10-29T00:00:00",0,1,1,1,1,1,1,,,,0,0,0,0,0,0,"PPG",0
1,0,0,0,0,2545324,"2018-10-26T00:00:00",0,1,1,1,1,1,1,,,,0,0,0,0,0,800,"PPG",0
1,0,0,0,0,2545324,"2018-10-25T00:00:00",0,1,1,1,1,1,1,,,,0,0,0,0,0,0,"PPG",0
1,0,0,0,0,2545324,"2018-10-24T00:00:00",0,1,1,1,1,1,1,,,,0,0,0,0,0,0,"PPG",0
1,0,0,0,0,2545324,"2018-10-23T00:00:00",0,1,1,1,1,1,1,,,,0,0,0,0,0,0,"PPG",0
1,0,0,0,0,2545324,"2018-10-22T00:00:00",0,1,1,1,1,1,1,,,,0,0,0,0,0,0,"PPG",0
1,0,0,0,1500,2545324,"2018-10-19T00:00:00",0,1,1,1,1,1,1,,,,0,0,0,0,0,100,"PPG",0
1,0,0,0,0,2545324,"2018-10-18T00:00:00",0,1,1,1,1,1,1,,,,0,0,0,0,0,0,"PPG",0
1,0,0,0,0,2545324,"2018-10-17T00:00:00",0,1,1,1,1,1,1,,,,0,0,0,0,0,0,"PPG",0
1,0,0,0,0,2545324,"2018-10-16T00:00:00",0,1,1,1,1,1,1,,,,0,0,0,0,0,0,"PPG",0
1,0,0,0,0,2545324,"2018-10-15T00:00:00",0,1,1,1,1,1,1,,,,0,0,0,0,0,0,"PPG",0
1,0,0,0,14200,2545324,"2018-10-12T00:00:00",4600,1,1,1,1,1,1,,,,0,0,0,0,0,5400,"PPG",4600000
1,0,0,0,0,2545324,"2018-10-11T00:00:00",0,1,1,1,1,1,1,,,,0,0,0,0,0,0,"PPG",0
1,0,0,0,0,2545324,"2018-10-10T00:00:00",0,1,1,1,1,1,1,,,,0,0,0,0,0,0,"PPG",0
1,0,0,0,0,2545324,"2018-10-09T00:00:00",0,1,1,1,1,1,1,,,,0,0,0,0,0,0,"PPG",0
1,0,0,0,0,2545324,"2018-10-08T00:00:00",0,1,1,1,1,1,1,,,,0,0,0,0,0,0,"PPG",0
1,0,0,0,40500,2545324,"2018-10-05T00:00:00",0,1,1,1,1,1,1,,,,0,0,0,0,0,0,"PPG",0
1,0,0,0,0,2545324,"2018-10-04T00:00:00",0,1,1,1,1,1,1,,,,0,0,0,0,0,0,"PPG",0
1,0,0,0,0,2545324,"2018-10-03T00:00:00",0,1,1,1,1,1,1,,,,0,0,0,0,0,0,"PPG",0
1,0,0,0,0,2545324,"2018-10-02T00:00:00",0,1,1,1,1,1,1,,,,0,0,0,0,0,0,"PPG",0
1,0,0,0,0,2545324,"2018-10-01T00:00:00",0,1,1,1,1,1,1,,,,0,0,0,0,0,0,"PPG",0
1,0,0,0,0,2545348,"2018-09-28T00:00:00",0,1,1,1,1,1,1,,,,0,0,0,0,0,0,"PPG",0
1,0,0,0,0,2545348,"2018-09-27T00:00:00",0,1,1,1,1,1,1,,,,0,0,0,0,0,0,"PPG",0
1,0,0,0,0,2545348,"2018-09-26T00:00:00",0,1,1,1,1,1,1,,,,0,0,0,0,0,0,"PPG",0
1,0,0,0,0,2545348,"2018-09-25T00:00:00",0,1,1,1,1,1,1,,,,0,0,0,0,0,0,"PPG",0
1,0,0,0,0,2545348,"2018-09-24T00:00:00",0,1,1,1,1,1,1,,,,0,0,0,0,0,0,"PPG",0
1,0,0,0,2700,2545348,"2018-09-21T00:00:00",800,1,0.9,1,1,1,1,,,,0,0,0,0,0,5400,"PPG",800000
1,0,0,0,0,2545348,"2018-09-20T00:00:00",0,0.9,0.9,0.9,0.9,0.9,0.9,,,,0,0,0,0,0,0,"PPG",0
1,0,0,0,0,2545348,"2018-09-19T00:00:00",0,0.9,0.9,0.9,0.9,0.9,0.9,,,,0,0,0,0,0,0,"PPG",0
1,0,0,0,0,2545348,"2018-09-18T00:00:00",0,0.9,0.9,0.9,0.9,0.9,0.9,,,,0,0,0,0,0,0,"PPG",0
1,0,0,0,0,2545348,"2018-09-17T00:00:00",0,0.9,0.9,0.9,0.9,0.9,0.9,,,,0,0,0,0,0,0,"PPG",0
1,0,0,0,13400,2545348,"2018-09-14T00:00:00",300,0.9,0.8,0.9,0.9,0.9,0.9,,,,0,0,0,0,0,300,"PPG",270000
1,0,0,0,0,2545348,"2018-09-13T00:00:00",0,0.8,0.8,0.8,0.8,0.8,0.8,,,,0,0,0,0,0,0,"PPG",0
1,0,0,0,0,2545348,"2018-09-12T00:00:00",0,0.8,0.8,0.8,0.8,0.8,0.8,,,,0,0,0,0,0,0,"PPG",0
1,0,0,0,0,2545348,"2018-09-11T00:00:00",0,0.8,0.8,0.8,0.8,0.8,0.8,,,,0,0,0,0,0,0,"PPG",0
1,0,0,0,0,2545348,"2018-09-10T00:00:00",0,0.8,0.8,0.8,0.8,0.8,0.8,,,,0,0,0,0,0,0,"PPG",0
1,0,0,0,18000,2545348,"2018-09-07T00:00:00",600,0.7833333333333333,0.7,0.8,0.8,0.7,0.7,,,,0,0,0,0,0,600,"PPG",470000
1,0,0,0,0,2545348,"2018-09-06T00:00:00",0,0.7,0.7,0.7,0.7,0.7,0.7,,,,0,0,0,0,0,0,"PPG",0
1,0,0,0,0,2545348,"2018-09-05T00:00:00",0,0.7,0.7,0.7,0.7,0.7,0.7,,,,0,0,0,0,0,0,"PPG",0
1,0,0,0,0,2545348,"2018-09-04T00:00:00",0,0.7,0.7,0.7,0.7,0.7,0.7,,,,0,0,0,0,0,0,"PPG",0
1,0,0,0,22000,2545348,"2018-08-31T00:00:00",500,0.7,0.8,0.7,0.7,0.7,0.7,,,,0,0,0,0,0,1000,"PPG",350000
1,0,0,0,0,2545348,"2018-08-30T00:00:00",0,0.8,0.8,0.8,0.8,0.8,0.8,,,,0,0,0,0,0,0,"PPG",0
1,0,0,0,0,2545348,"2018-08-29T00:00:00",0,0.8,0.8,0.8,0.8,0.8,0.8,,,,0,0,0,0,0,0,"PPG",0
1,0,0,0,0,2541748,"2018-08-28T00:00:00",0,0.8,0.8,0.8,0.8,0.8,0.8,,,,0,0,0,0,0,0,"PPG",0
1,0,0,0,0,2541748,"2018-08-27T00:00:00",0,0.8,0.8,0.8,0.8,0.8,0.8,,,,0,0,0,0,0,0,"PPG",0
1,0,0,0,10300,2541748,"2018-08-24T00:00:00",3800,0.8,0.9,0.8,0.8,0.8,0.8,,,,0,0,0,3600,2880000,4700,"PPG",3040000
1,0,0,0,0,2541748,"2018-08-23T00:00:00",0,0.9,0.9,0.9,0.9,0.9,0.9,,,,0,0,0,0,0,0,"PPG",0
1,0,0,0,0,2541748,"2018-08-22T00:00:00",0,0.9,0.9,0.9,0.9,0.9,0.9,,,,0,0,0,0,0,0,"PPG",0
1,0,0,0,0,2541748,"2018-08-21T00:00:00",0,0.9,0.9,0.9,0.9,0.9,0.9,,,,0,0,0,0,0,0,"PPG",0
1,0,0,0,0,2541748,"2018-08-20T00:00:00",0,0.9,0.9,0.9,0.9,0.9,0.9,,,,0,0,0,0,0,0,"PPG",0
1,0,0,0,8800,2541748,"2018-08-17T00:00:00",8800,0.9397727272727272,1,0.9,1.1,0.9,1.1,,,,0,0,0,0,0,14000,"PPG",8270000
1,0,0,0,0,2541748,"2018-08-16T00:00:00",0,1,1,1,1,1,1,,,,0,0,0,0,0,0,"PPG",0
1,0,0,0,0,2541748,"2018-08-15T00:00:00",0,1,1,1,1,1,1,,,,0,0,0,0,0,0,"PPG",0
1,0,0,0,0,2541748,"2018-08-14T00:00:00",0,1,1,1,1,1,1,,,,0,0,0,0,0,0,"PPG",0
1,0,0,0,0,2541748,"2018-08-13T00:00:00",0,1,1,1,1,1,1,,,,0,0,0,0,0,0,"PPG",0
1,0,0,0,20000,2541748,"2018-08-10T00:00:00",100,1,0.9,1,1,1,1,,,,0,0,0,0,0,100,"PPG",100000
1,0,0,0,0,2541748,"2018-08-09T00:00:00",0,0.9,0.9,0.9,0.9,0.9,0.9,,,,0,0,0,0,0,0,"PPG",0
1,0,0,0,0,2541748,"2018-08-08T00:00:00",0,0.9,0.9,0.9,0.9,0.9,0.9,,,,0,0,0,0,0,0,"PPG",0
1,0,0,0,0,2541748,"2018-08-07T00:00:00",0,0.9,0.9,0.9,0.9,0.9,0.9,,,,0,0,0,0,0,0,"PPG",0
1,0,0,0,0,2541748,"2018-08-06T00:00:00",0,0.9,0.9,0.9,0.9,0.9,0.9,,,,0,0,0,0,0,0,"PPG",0
1,0,0,0,30100,2541748,"2018-08-03T00:00:00",300,0.9,0.8,0.9,0.9,0.9,0.9,,,,0,0,0,0,0,300,"PPG",270000
1,0,0,0,0,2541748,"2018-08-02T00:00:00",0,0.8,0.8,0.8,0.8,0.8,0.8,,,,0,0,0,0,0,0,"PPG",0
1,0,0,0,0,2541748,"2018-08-01T00:00:00",0,0.8,0.8,0.8,0.8,0.8,0.8,,,,0,0,0,0,0,0,"PPG",0
1,0,0,0,0,2541748,"2018-07-31T00:00:00",0,0.8,0.8,0.8,0.8,0.8,0.8,,,,0,0,0,0,0,0,"PPG",0
1,0,0,0,0,2541748,"2018-07-30T00:00:00",0,0.8,0.8,0.8,0.8,0.8,0.8,,,,0,0,0,0,0,0,"PPG",0
1,0,0,0,10000,2541748,"2018-07-27T00:00:00",0,0.8,0.8,0.8,0.8,0.8,0.8,,,,0,0,0,0,0,100,"PPG",0
1,0,0,0,0,2541748,"2018-07-26T00:00:00",0,0.8,0.8,0.8,0.8,0.8,0.8,,,,0,0,0,0,0,0,"PPG",0
1,0,0,0,0,2541748,"2018-07-25T00:00:00",0,0.8,0.8,0.8,0.8,0.8,0.8,,,,0,0,0,0,0,0,"PPG",0
1,0,0,0,0,2541748,"2018-07-24T00:00:00",0,0.8,0.8,0.8,0.8,0.8,0.8,,,,0,0,0,0,0,0,"PPG",0
1,0,0,0,0,2541748,"2018-07-23T00:00:00",0,0.8,0.8,0.8,0.8,0.8,0.8,,,,0,0,0,0,0,0,"PPG",0
1,0,0,0,10000,2541748,"2018-07-20T00:00:00",0,0.8,0.8,0.8,0.8,0.8,0.8,,,,0,0,0,0,0,0,"PPG",0
1,0,0,0,0,2541748,"2018-07-19T00:00:00",0,0.8,0.8,0.8,0.8,0.8,0.8,,,,0,0,0,0,0,0,"PPG",0
1,0,0,0,0,2541748,"2018-07-18T00:00:00",0,0.8,0.8,0.8,0.8,0.8,0.8,,,,0,0,0,0,0,0,"PPG",0
1,0,0,0,0,2541748,"2018-07-17T00:00:00",0,0.8,0.8,0.8,0.8,0.8,0.8,,,,0,0,0,0,0,0,"PPG",0
1,0,0,0,0,2541748,"2018-07-16T00:00:00",0,0.8,0.8,0.8,0.8,0.8,0.8,,,,0,0,0,0,0,0,"PPG",0
1,0,0,0,0,2541748,"2018-07-13T00:00:00",0,0.8,0.8,0.8,0.8,0.8,0.8,,,,0,0,0,0,0,0,"PPG",0
1,0,0,0,0,2541748,"2018-07-12T00:00:00",0,0.8,0.8,0.8,0.8,0.8,0.8,,,,0,0,0,0,0,0,"PPG",0
1,0,0,0,0,2541748,"2018-07-11T00:00:00",0,0.8,0.8,0.8,0.8,0.8,0.8,,,,0,0,0,0,0,0,"PPG",0
1,0,0,0,0,2541748,"2018-07-10T00:00:00",0,0.8,0.8,0.8,0.8,0.8,0.8,,,,0,0,0,0,0,0,"PPG",0
1,0,0,0,0,2541748,"2018-07-09T00:00:00",0,0.8,0.8,0.8,0.8,0.8,0.8,,,,0,0,0,0,0,0,"PPG",0
1,0,0,0,0,2541748,"2018-07-06T00:00:00",0,0.8,0.8,0.8,0.8,0.8,0.8,,,,0,0,0,0,0,0,"PPG",0
1,0,0,0,0,2541748,"2018-07-05T00:00:00",0,0.8,0.8,0.8,0.8,0.8,0.8,,,,0,0,0,0,0,0,"PPG",0
1,0,0,0,0,2541748,"2018-07-04T00:00:00",0,0.8,0.8,0.8,0.8,0.8,0.8,,,,0,0,0,0,0,0,"PPG",0
1,0,0,0,0,2541748,"2018-07-03T00:00:00",0,0.8,0.8,0.8,0.8,0.8,0.8,,,,0,0,0,0,0,0,"PPG",0
1,0,0,0,0,2541748,"2018-07-02T00:00:00",0,0.8,0.8,0.8,0.8,0.8,0.8,,,,0,0,0,0,0,0,"PPG",0
1,0,0,0,2000,2541748,"2018-06-29T00:00:00",0,0.8,0.8,0.8,0.8,0.8,0.8,,,,0,0,0,0,0,0,"PPG",0
1,0,0,0,0,2541748,"2018-06-28T00:00:00",0,0.8,0.8,0.8,0.8,0.8,0.8,,,,0,0,0,0,0,0,"PPG",0
1,0,0,0,0,2541748,"2018-06-27T00:00:00",0,0.8,0.8,0.8,0.8,0.8,0.8,,,,0,0,0,0,0,0,"PPG",0
1,0,0,0,0,2541748,"2018-06-26T00:00:00",0,0.8,0.8,0.8,0.8,0.8,0.8,,,,0,0,0,0,0,0,"PPG",0
1,0,0,0,0,2541748,"2018-06-25T00:00:00",0,0.8,0.8,0.8,0.8,0.8,0.8,,,,0,0,0,0,0,0,"PPG",0
1,0,0,0,11200,2541748,"2018-06-22T00:00:00",9900,0.8,0.9,0.8,0.8,0.8,0.8,,,,0,0,0,0,0,10100,"PPG",7920000
1,0,0,0,0,2541748,"2018-06-21T00:00:00",0,0.9,0.9,0.9,0.9,0.9,0.9,,,,0,0,0,0,0,0,"PPG",0
1,0,0,0,0,2541748,"2018-06-20T00:00:00",0,0.9,0.9,0.9,0.9,0.9,0.9,,,,0,0,0,0,0,0,"PPG",0
1,0,0,0,0,2541748,"2018-06-19T00:00:00",0,0.9,0.9,0.9,0.9,0.9,0.9,,,,0,0,0,0,0,0,"PPG",0
1,0,0,0,0,2541748,"2018-06-18T00:00:00",0,0.9,0.9,0.9,0.9,0.9,0.9,,,,0,0,0,0,0,0,"PPG",0
1,0,0,0,0,2541748,"2018-06-15T00:00:00",0,0.9,0.9,0.9,0.9,0.9,0.9,,,,0,0,0,0,0,0,"PPG",0
1,0,0,0,0,2541748,"2018-06-14T00:00:00",0,0.9,0.9,0.9,0.9,0.9,0.9,,,,0,0,0,0,0,0,"PPG",0
1,0,0,0,0,2541748,"2018-06-13T00:00:00",0,0.9,0.9,0.9,0.9,0.9,0.9,,,,0,0,0,0,0,0,"PPG",0
1,0,0,0,0,2541748,"2018-06-12T00:00:00",0,0.9,0.9,0.9,0.9,0.9,0.9,,,,0,0,0,0,0,0,"PPG",0
1,0,0,0,0,2541748,"2018-06-11T00:00:00",0,0.9,0.9,0.9,0.9,0.9,0.9,,,,0,0,0,0,0,0,"PPG",0
1,0,0,0,100,2541748,"2018-06-08T00:00:00",0,0.9,0.9,0.9,0.9,0.9,0.9,,,,0,0,0,0,0,100,"PPG",0
1,0,0,0,0,2541748,"2018-06-07T00:00:00",0,0.9,0.9,0.9,0.9,0.9,0.9,,,,0,0,0,0,0,0,"PPG",0
1,0,0,0,0,2541748,"2018-06-06T00:00:00",0,0.9,0.9,0.9,0.9,0.9,0.9,,,,0,0,0,0,0,0,"PPG",0
1,0,0,0,0,2541748,"2018-06-05T00:00:00",0,0.9,0.9,0.9,0.9,0.9,0.9,,,,0,0,0,0,0,0,"PPG",0
1,0,0,0,0,2541748,"2018-06-04T00:00:00",0,0.9,0.9,0.9,0.9,0.9,0.9,,,,0,0,0,0,0,0,"PPG",0
1,0,0,0,10100,2541748,"2018-06-01T00:00:00",0,0.9,0.9,0.9,0.9,0.9,0.9,,,,0,0,0,0,0,100,"PPG",0
1,0,0,0,0,2541748,"2018-05-31T00:00:00",0,0.9,0.9,0.9,0.9,0.9,0.9,,,,0,0,0,0,0,0,"PPG",0
1,0,0,0,0,2541748,"2018-05-30T00:00:00",0,0.9,0.9,0.9,0.9,0.9,0.9,,,,0,0,0,0,0,0,"PPG",0
1,0,0,0,0,2541748,"2018-05-29T00:00:00",0,0.9,0.9,0.9,0.9,0.9,0.9,,,,0,0,0,0,0,0,"PPG",0
1,0,0,0,0,2541748,"2018-05-28T00:00:00",0,0.9,0.9,0.9,0.9,0.9,0.9,,,,0,0,0,0,0,0,"PPG",0
1,0,0,0,16000,2541748,"2018-05-25T00:00:00",6000,0.9,0.8,0.9,0.9,0.9,0.9,,,,0,0,0,0,0,6000,"PPG",5400000
1,0,0,0,0,2541748,"2018-05-24T00:00:00",0,0.8,0.8,0.8,0.8,0.8,0.8,,,,0,0,0,0,0,0,"PPG",0
1,0,0,0,0,2541748,"2018-05-23T00:00:00",0,0.8,0.8,0.8,0.8,0.8,0.8,,,,0,0,0,0,0,0,"PPG",0
1,0,0,0,0,2541748,"2018-05-22T00:00:00",0,0.8,0.8,0.8,0.8,0.8,0.8,,,,0,0,0,0,0,0,"PPG",0
1,0,0,0,0,2541748,"2018-05-21T00:00:00",0,0.8,0.8,0.8,0.8,0.8,0.8,,,,0,0,0,0,0,0,"PPG",0
1,0,0,0,14000,2541748,"2018-05-18T00:00:00",4000,0.8,0.8,0.8,0.8,0.8,0.8,,,,0,0,0,0,0,10000,"PPG",3200000
1,0,0,0,0,2541748,"2018-05-17T00:00:00",0,0.8,0.8,0.8,0.8,0.8,0.8,,,,0,0,0,0,0,0,"PPG",0
1,0,0,0,0,2541748,"2018-05-16T00:00:00",0,0.8,0.8,0.8,0.8,0.8,0.8,,,,0,0,0,0,0,0,"PPG",0
1,0,0,0,0,2541748,"2018-05-15T00:00:00",0,0.8,0.8,0.8,0.8,0.8,0.8,,,,0,0,0,0,0,0,"PPG",0
1,0,0,0,0,2541748,"2018-05-14T00:00:00",0,0.8,0.8,0.8,0.8,0.8,0.8,,,,0,0,0,0,0,0,"PPG",0
1,0,0,0,3400,2541748,"2018-05-11T00:00:00",2400,0.8,0.8,0.8,0.8,0.8,0.8,,,,0,0,0,0,0,12000,"PPG",1920000
1,0,0,0,0,2541748,"2018-05-10T00:00:00",0,0.8,0.8,0.8,0.8,0.8,0.8,,,,0,0,0,0,0,0,"PPG",0
1,0,0,0,0,2541748,"2018-05-09T00:00:00",0,0.8,0.8,0.8,0.8,0.8,0.8,,,,0,0,0,0,0,0,"PPG",0
1,0,0,0,0,2541748,"2018-05-08T00:00:00",0,0.8,0.8,0.8,0.8,0.8,0.8,,,,0,0,0,0,0,0,"PPG",0
1,0,0,0,0,2541748,"2018-05-07T00:00:00",0,0.8,0.8,0.8,0.8,0.8,0.8,,,,0,0,0,0,0,0,"PPG",0
1,0,0,0,0,2541748,"2018-05-04T00:00:00",0,0.8,0.8,0.8,0.8,0.8,0.8,,,,0,0,0,0,0,7000,"PPG",0
1,0,0,0,0,2541748,"2018-05-03T00:00:00",0,0.8,0.8,0.8,0.8,0.8,0.8,,,,0,0,0,0,0,0,"PPG",0
1,0,0,0,0,2541748,"2018-05-02T00:00:00",0,0.8,0.8,0.8,0.8,0.8,0.8,,,,0,0,0,0,0,0,"PPG",0
1,0,0,0,0,2541748,"2018-04-27T00:00:00",0,0.8,0.8,0.8,0.8,0.8,0.8,,,,0,0,0,0,0,4000,"PPG",0
1,0,0,0,0,2541748,"2018-04-26T00:00:00",0,0.8,0.8,0.8,0.8,0.8,0.8,,,,0,0,0,0,0,0,"PPG",0
1,0,0,0,0,2541748,"2018-04-24T00:00:00",0,0.8,0.8,0.8,0.8,0.8,0.8,,,,0,0,0,0,0,0,"PPG",0
1,0,0,0,0,2541748,"2018-04-23T00:00:00",0,0.8,0.8,0.8,0.8,0.8,0.8,,,,0,0,0,0,0,0,"PPG",0
1,0,0,0,11400,2541748,"2018-04-20T00:00:00",4100,0.8,0.7,0.8,0.8,0.8,0.8,,,,0,0,0,0,0,4100,"PPG",3280000
1,0,0,0,0,2541748,"2018-04-19T00:00:00",0,0.7,0.7,0.7,0.7,0.7,0.7,,,,0,0,0,0,0,0,"PPG",0
1,0,0,0,0,2541748,"2018-04-18T00:00:00",0,0.7,0.7,0.7,0.7,0.7,0.7,,,,0,0,0,0,0,0,"PPG",0
1,0,0,0,0,2541748,"2018-04-17T00:00:00",0,0.7,0.7,0.7,0.7,0.7,0.7,,,,0,0,0,0,0,0,"PPG",0
1,0,0,0,0,2541748,"2018-04-16T00:00:00",0,0.7,0.7,0.7,0.7,0.7,0.7,,,,0,0,0,0,0,0,"PPG",0
1,0,0,0,2200,2541748,"2018-04-13T00:00:00",1800,0.6888888888888889,0.7,0.6,0.7,0.6,0.7,,,,0,0,0,0,0,5900,"PPG",1240000
1,0,0,0,0,2541748,"2018-04-12T00:00:00",0,0.7,0.7,0.7,0.7,0.7,0.7,,,,0,0,0,0,0,0,"PPG",0
1,0,0,0,0,2541748,"2018-04-11T00:00:00",0,0.7,0.7,0.7,0.7,0.7,0.7,,,,0,0,0,0,0,0,"PPG",0
1,0,0,0,0,2541748,"2018-04-10T00:00:00",0,0.7,0.7,0.7,0.7,0.7,0.7,,,,0,0,0,0,0,0,"PPG",0
1,0,0,0,0,2541748,"2018-04-09T00:00:00",0,0.7,0.7,0.7,0.7,0.7,0.7,,,,0,0,0,0,0,0,"PPG",0
1,0,0,0,100,2541748,"2018-04-06T00:00:00",0,0.7,0.7,0.7,0.7,0.7,0.7,,,,0,0,0,0,0,0,"PPG",0
1,0,0,0,0,2541748,"2018-04-05T00:00:00",0,0.7,0.7,0.7,0.7,0.7,0.7,,,,0,0,0,0,0,0,"PPG",0
1,0,0,0,0,2541748,"2018-04-04T00:00:00",0,0.7,0.7,0.7,0.7,0.7,0.7,,,,0,0,0,0,0,0,"PPG",0
1,0,0,0,0,2541748,"2018-04-03T00:00:00",0,0.7,0.7,0.7,0.7,0.7,0.7,,,,0,0,0,0,0,0,"PPG",0
1,0,0,0,0,2541748,"2018-04-02T00:00:00",0,0.7,0.7,0.7,0.7,0.7,0.7,,,,0,0,0,0,0,0,"PPG",0
1,0,0,0,0,2541748,"2018-03-30T00:00:00",0,0.7,0.7,0.7,0.7,0.7,0.7,,,,0,0,0,0,0,0,"PPG",0
1,0,0,0,0,2541748,"2018-03-29T00:00:00",0,0.7,0.7,0.7,0.7,0.7,0.7,,,,0,0,0,0,0,0,"PPG",0
1,0,0,0,0,2541748,"2018-03-28T00:00:00",0,0.7,0.7,0.7,0.7,0.7,0.7,,,,0,0,0,0,0,0,"PPG",0
1,0,0,0,0,2541748,"2018-03-27T00:00:00",0,0.7,0.7,0.7,0.7,0.7,0.7,,,,0,0,0,0,0,0,"PPG",0
1,0,0,0,0,2541748,"2018-03-26T00:00:00",0,0.7,0.7,0.7,0.7,0.7,0.7,,,,0,0,0,0,0,0,"PPG",0
1,2,0,0,4000,2541748,"2018-03-23T00:00:00",3100,0.7,0.8,0.7,0.7,0.7,0.7,,,,0,0,2,0,0,3100,"PPG",2170000
1,0,0,0,0,2541748,"2018-03-22T00:00:00",0,0.8,0.8,0.8,0.8,0.8,0.8,,,,0,0,0,0,0,0,"PPG",0
1,0,0,0,0,2541748,"2018-03-21T00:00:00",0,0.8,0.8,0.8,0.8,0.8,0.8,,,,0,0,0,0,0,0,"PPG",0
1,0,0,0,0,2541748,"2018-03-20T00:00:00",0,0.8,0.8,0.8,0.8,0.8,0.8,,,,0,0,0,0,0,0,"PPG",0
1,0,0,0,0,2541748,"2018-03-19T00:00:00",0,0.8,0.8,0.8,0.8,0.8,0.8,,,,0,0,0,0,0,0,"PPG",0
1,2,0,0,3200,2541748,"2018-03-16T00:00:00",250,0.8,0.8,0.8,0.8,0.8,0.8,,,,0,0,1,0,0,200,"PPG",200000
1,0,0,0,0,2541748,"2018-03-15T00:00:00",0,0.8,0.8,0.8,0.8,0.8,0.8,,,,0,0,0,0,0,0,"PPG",0
1,0,0,0,0,2541748,"2018-03-14T00:00:00",0,0.8,0.8,0.8,0.8,0.8,0.8,,,,0,0,0,0,0,0,"PPG",0
1,0,0,0,0,2541748,"2018-03-13T00:00:00",0,0.8,0.8,0.8,0.8,0.8,0.8,,,,0,0,0,0,0,0,"PPG",0
1,0,0,0,0,2541748,"2018-03-12T00:00:00",0,0.8,0.8,0.8,0.8,0.8,0.8,,,,0,0,0,0,0,0,"PPG",0
1,1,0,0,2800,2541748,"2018-03-09T00:00:00",0,0.8,0.8,0.8,0.8,0.8,0.8,,,,0,0,0,0,0,0,"PPG",0
1,0,0,0,0,2541748,"2018-03-08T00:00:00",0,0.8,0.8,0.8,0.8,0.8,0.8,,,,0,0,0,0,0,0,"PPG",0
1,0,0,0,0,2541748,"2018-03-07T00:00:00",0,0.8,0.8,0.8,0.8,0.8,0.8,,,,0,0,0,0,0,0,"PPG",0
1,0,0,0,0,2541748,"2018-03-06T00:00:00",0,0.8,0.8,0.8,0.8,0.8,0.8,,,,0,0,0,0,0,0,"PPG",0
1,0,0,0,0,2541748,"2018-03-05T00:00:00",0,0.8,0.8,0.8,0.8,0.8,0.8,,,,0,0,0,0,0,0,"PPG",0
1,1,0,0,2900,2541748,"2018-03-02T00:00:00",100,0.8,0.9,0.8,0.8,0.8,0.8,,,,0,0,1,0,0,100,"PPG",80000
1,0,0,0,0,2541748,"2018-03-01T00:00:00",0,0.9,0.9,0.9,0.9,0.9,0.9,,,,0,0,0,0,0,0,"PPG",0
1,0,0,0,0,2541748,"2018-02-28T00:00:00",0,0.9,0.9,0.9,0.9,0.9,0.9,,,,0,0,0,0,0,0,"PPG",0
1,0,0,0,0,2541748,"2018-02-27T00:00:00",0,0.9,0.9,0.9,0.9,0.9,0.9,,,,0,0,0,0,0,0,"PPG",0
1,0,0,0,0,2541748,"2018-02-26T00:00:00",0,0.9,0.9,0.9,0.9,0.9,0.9,,,,0,0,0,0,0,0,"PPG",0
1,2,0,0,4300,2541748,"2018-02-23T00:00:00",170,0.9,0.9,0.9,0.9,0.9,0.9,,,,0,0,1,0,0,100,"PPG",153000
1,0,0,0,0,2541748,"2018-02-22T00:00:00",0,0.9,0.9,0.9,0.9,0.9,0.9,,,,0,0,0,0,0,0,"PPG",0
1,0,0,0,0,2541748,"2018-02-21T00:00:00",0,0.9,0.9,0.9,0.9,0.9,0.9,,,,0,0,0,0,0,0,"PPG",0
1,0,0,0,0,2541748,"2018-02-13T00:00:00",0,0.9,0.9,0.9,0.9,0.9,0.9,,,,0,0,0,0,0,0,"PPG",0
1,0,0,0,0,2541748,"2018-02-12T00:00:00",0,0.9,0.9,0.9,0.9,0.9,0.9,,,,0,0,0,0,0,0,"PPG",0
1,1,0,0,4000,2541748,"2018-02-09T00:00:00",0,0.9,0.9,0.9,0.9,0.9,0.9,,,,0,0,0,0,0,0,"PPG",0
1,0,0,0,0,2541748,"2018-02-08T00:00:00",0,0.9,0.9,0.9,0.9,0.9,0.9,,,,0,0,0,0,0,0,"PPG",0
1,0,0,0,0,2541748,"2018-02-07T00:00:00",0,0.9,0.9,0.9,0.9,0.9,0.9,,,,0,0,0,0,0,0,"PPG",0
1,0,0,0,0,2541748,"2018-02-06T00:00:00",0,0.9,0.9,0.9,0.9,0.9,0.9,,,,0,0,0,0,0,0,"PPG",0
1,0,0,0,0,2541748,"2018-02-05T00:00:00",0,0.9,0.9,0.9,0.9,0.9,0.9,,,,0,0,0,0,0,0,"PPG",0
1,2,0,0,11000,2541748,"2018-02-02T00:00:00",0,0.9,0.9,0.9,0.9,0.9,0.9,,,,0,0,0,0,0,0,"PPG",0
1,0,0,0,0,2541748,"2018-02-01T00:00:00",0,0.9,0.9,0.9,0.9,0.9,0.9,,,,0,0,0,0,0,0,"PPG",0
1,0,0,0,0,2541748,"2018-01-31T00:00:00",0,0.9,0.9,0.9,0.9,0.9,0.9,,,,0,0,0,0,0,0,"PPG",0
1,0,0,0,0,2541748,"2018-01-30T00:00:00",0,0.9,0.9,0.9,0.9,0.9,0.9,,,,0,0,0,0,0,0,"PPG",0
1,0,0,0,0,2541748,"2018-01-29T00:00:00",0,0.9,0.9,0.9,0.9,0.9,0.9,,,,0,0,0,0,0,0,"PPG",0
1,2,0,0,5100,2541748,"2018-01-26T00:00:00",199,0.9,1,0.9,0.9,0.9,0.9,,,,0,0,2,0,0,200,"PPG",179100
1,0,0,0,0,2541748,"2018-01-25T00:00:00",0,1,1,1,1,1,1,,,,0,0,0,0,0,0,"PPG",0
1,0,0,0,0,2541748,"2018-01-24T00:00:00",0,1,1,1,1,1,1,,,,0,0,0,0,0,0,"PPG",0
1,0,0,0,0,2541748,"2018-01-23T00:00:00",0,1,1,1,1,1,1,,,,0,0,0,0,0,0,"PPG",0
1,0,0,0,0,2541748,"2018-01-22T00:00:00",0,1,1,1,1,1,1,,,,0,0,0,0,0,0,"PPG",0
1,1,0,0,5000,2541748,"2018-01-19T00:00:00",0,1,1,1,1,1,1,,,,0,0,0,0,0,0,"PPG",0
1,0,0,0,0,2541748,"2018-01-18T00:00:00",0,1,1,1,1,1,1,,,,0,0,0,0,0,0,"PPG",0
1,0,0,0,0,2541748,"2018-01-17T00:00:00",0,1,1,1,1,1,1,,,,0,0,0,0,0,0,"PPG",0
1,0,0,0,0,2541748,"2018-01-16T00:00:00",0,1,1,1,1,1,1,,,,0,0,0,0,0,0,"PPG",0
1,0,0,0,0,2541748,"2018-01-15T00:00:00",0,1,1,1,1,1,1,,,,0,0,0,0,0,0,"PPG",0
1,3,0,0,9000,2541748,"2018-01-12T00:00:00",100,1,1,1,1,1,1,,,,0,0,1,0,0,100,"PPG",100000
1,0,0,0,0,2541748,"2018-01-11T00:00:00",0,1,1,1,1,1,1,,,,0,0,0,0,0,0,"PPG",0
1,0,0,0,0,2541748,"2018-01-10T00:00:00",0,1,1,1,1,1,1,,,,0,0,0,0,0,0,"PPG",0
1,0,0,0,0,2539748,"2018-01-09T00:00:00",0,1,1,1,1,1,1,,,,0,0,0,0,0,0,"PPG",0
1,0,0,0,0,2539748,"2018-01-08T00:00:00",0,1,1,1,1,1,1,,,,0,0,0,0,0,0,"PPG",0
1,4,0,0,6500,2539748,"2018-01-05T00:00:00",2000,1.015,1.1,1,1.1,1,1.1,,,,0,0,2,2000,2030000,2100,"PPG",2030000
1,0,0,0,0,2539748,"2018-01-04T00:00:00",0,1.1,1.1,1.1,1.1,1.1,1.1,,,,0,0,0,0,0,0,"PPG",0
1,0,0,0,0,2539748,"2018-01-03T00:00:00",0,1.1,1.1,1.1,1.1,1.1,1.1,,,,0,0,0,0,0,0,"PPG",0
1,0,0,0,0,2539748,"2018-01-02T00:00:00",0,1.1,1.1,1.1,1.1,1.1,1.1,,,,0,0,0,0,0,0,"PPG",0
1,3,0,0,6100,2539748,"2017-12-29T00:00:00",2100,1.1,1.1,1.1,1.1,1.1,1.1,,,,0,0,2,0,0,2000,"PPG",2310000
1,0,0,0,0,2539748,"2017-12-28T00:00:00",0,1.1,1.1,1.1,1.1,1.1,1.1,,,,0,0,0,0,0,0,"PPG",0
1,0,0,0,0,2539748,"2017-12-27T00:00:00",0,1.1,1.1,1.1,1.1,1.1,1.1,,,,0,0,0,0,0,0,"PPG",0
1,0,0,0,0,2539748,"2017-12-26T00:00:00",0,1.1,1.1,1.1,1.1,1.1,1.1,,,,0,0,0,0,0,0,"PPG",0
1,0,0,0,0,2539748,"2017-12-25T00:00:00",0,1.1,1.1,1.1,1.1,1.1,1.1,,,,0,0,0,0,0,0,"PPG",0
1,4,0,0,22900,2539748,"2017-12-22T00:00:00",17300,1.1,1.1,1.1,1.1,1.1,1.1,,,,0,0,2,0,0,17300,"PPG",19030000
1,0,0,0,0,2539748,"2017-12-21T00:00:00",0,1.1,1.1,1.1,1.1,1.1,1.1,,,,0,0,0,0,0,0,"PPG",0
1,0,0,0,0,2539748,"2017-12-20T00:00:00",0,1.1,1.1,1.1,1.1,1.1,1.1,,,,0,0,0,0,0,0,"PPG",0
1,0,0,0,0,2539748,"2017-12-19T00:00:00",0,1.1,1.1,1.1,1.1,1.1,1.1,,,,0,0,0,0,0,0,"PPG",0
1,0,0,0,0,2539748,"2017-12-18T00:00:00",0,1.1,1.1,1.1,1.1,1.1,1.1,,,,0,0,0,0,0,0,"PPG",0
1,2,0,0,4000,2539748,"2017-12-15T00:00:00",0,1.1,1.1,1.1,1.1,1.1,1.1,,,,0,0,0,0,0,0,"PPG",0
1,0,0,0,0,2539748,"2017-12-14T00:00:00",0,1.1,1.1,1.1,1.1,1.1,1.1,,,,0,0,0,0,0,0,"PPG",0
1,0,0,0,0,2539748,"2017-12-13T00:00:00",0,1.1,1.1,1.1,1.1,1.1,1.1,,,,0,0,0,0,0,0,"PPG",0
1,0,0,0,0,2539748,"2017-12-12T00:00:00",0,1.1,1.1,1.1,1.1,1.1,1.1,,,,0,0,0,0,0,0,"PPG",0
1,0,0,0,0,2539748,"2017-12-11T00:00:00",0,1.1,1.1,1.1,1.1,1.1,1.1,,,,0,0,0,0,0,0,"PPG",0
1,1,0,0,1600,2539748,"2017-12-08T00:00:00",0,1.1,1.1,1.1,1.1,1.1,1.1,,,,0,0,0,0,0,0,"PPG",0
1,0,0,0,0,2539748,"2017-12-07T00:00:00",0,1.1,1.1,1.1,1.1,1.1,1.1,,,,0,0,0,0,0,0,"PPG",0
1,0,0,0,0,2539748,"2017-12-06T00:00:00",0,1.1,1.1,1.1,1.1,1.1,1.1,,,,0,0,0,0,0,0,"PPG",0
1,0,0,0,0,2539748,"2017-12-05T00:00:00",0,1.1,1.1,1.1,1.1,1.1,1.1,,,,0,0,0,0,0,0,"PPG",0
1,0,0,0,0,2539748,"2017-12-04T00:00:00",0,1.1,1.1,1.1,1.1,1.1,1.1,,,,0,0,0,0,0,0,"PPG",0
1,3,0,0,22000,2539748,"2017-12-01T00:00:00",560,1.1178571428571429,1.2,1.2,1.2,1.1,1.1,,,,0,0,2,0,0,500,"PPG",626000
1,0,0,0,0,2539748,"2017-11-30T00:00:00",0,1.2,1.2,1.2,1.2,1.2,1.2,,,,0,0,0,0,0,0,"PPG",0
1,0,0,0,0,2539748,"2017-11-29T00:00:00",0,1.2,1.2,1.2,1.2,1.2,1.2,,,,0,0,0,0,0,0,"PPG",0
1,0,0,0,0,2539748,"2017-11-28T00:00:00",0,1.2,1.2,1.2,1.2,1.2,1.2,,,,0,0,0,0,0,0,"PPG",0
1,0,0,0,0,2539748,"2017-11-27T00:00:00",0,1.2,1.2,1.2,1.2,1.2,1.2,,,,0,0,0,0,0,0,"PPG",0
1,5,0,0,8100,2539748,"2017-11-24T00:00:00",2000,1.22,1.4,1.3,1.3,1.2,1.2,,,,0,0,3,0,0,2500,"PPG",2440000
1,0,0,0,0,2539748,"2017-11-23T00:00:00",0,1.4,1.4,1.4,1.4,1.4,1.4,,,,0,0,0,0,0,0,"PPG",0
1,0,0,0,0,2539748,"2017-11-22T00:00:00",0,1.4,1.4,1.4,1.4,1.4,1.4,,,,0,0,0,0,0,0,"PPG",0
1,0,0,0,0,2539748,"2017-11-21T00:00:00",0,1.4,1.4,1.4,1.4,1.4,1.4,,,,0,0,0,0,0,0,"PPG",0
1,0,0,0,0,2539748,"2017-11-20T00:00:00",0,1.4,1.4,1.4,1.4,1.4,1.4,,,,0,0,0,0,0,0,"PPG",0
1,2,0,0,700,2539748,"2017-11-17T00:00:00",700,1.4,1.3,1.4,1.4,1.4,1.4,,,,0,0,2,0,0,700,"PPG",980000
1,0,0,0,0,2539748,"2017-11-16T00:00:00",0,1.3,1.3,1.3,1.3,1.3,1.3,,,,0,0,0,0,0,0,"PPG",0
1,0,0,0,0,2539748,"2017-11-15T00:00:00",0,1.3,1.3,1.3,1.3,1.3,1.3,,,,0,0,0,0,0,0,"PPG",0
1,0,0,0,0,2539748,"2017-11-14T00:00:00",0,1.3,1.3,1.3,1.3,1.3,1.3,,,,0,0,0,0,0,0,"PPG",0
1,0,0,0,0,2539748,"2017-11-13T00:00:00",0,1.3,1.3,1.3,1.3,1.3,1.3,,,,0,0,0,0,0,0,"PPG",0
1,2,0,0,1200,2539748,"2017-11-10T00:00:00",230,1.2869565217391306,1.3,1.4,1.4,1.2,1.2,,,,0,0,2,0,0,200,"PPG",296000
1,0,0,0,0,2539748,"2017-11-09T00:00:00",0,1.3,1.3,1.3,1.3,1.3,1.3,,,,0,0,0,0,0,0,"PPG",0
1,0,0,0,0,2539748,"2017-11-08T00:00:00",0,1.3,1.3,1.3,1.3,1.3,1.3,,,,0,0,0,0,0,0,"PPG",0
1,0,0,0,0,2539748,"2017-11-07T00:00:00",0,1.3,1.3,1.3,1.3,1.3,1.3,,,,0,0,0,0,0,0,"PPG",0
1,0,0,0,0,2539748,"2017-11-06T00:00:00",0,1.3,1.3,1.3,1.3,1.3,1.3,,,,0,0,0,0,0,0,"PPG",0
1,4,0,0,25900,2539748,"2017-11-03T00:00:00",1000,1.32,1.5,1.4,1.4,1.3,1.3,,,,0,0,3,0,0,1200,"PPG",1320000
1,0,0,0,0,2539748,"2017-11-02T00:00:00",0,1.5,1.5,1.5,1.5,1.5,1.5,,,,0,0,0,0,0,0,"PPG",0
1,0,0,0,0,2539748,"2017-11-01T00:00:00",0,1.5,1.5,1.5,1.5,1.5,1.5,,,,0,0,0,0,0,0,"PPG",0
1,0,0,0,0,2539748,"2017-10-31T00:00:00",0,1.5,1.5,1.5,1.5,1.5,1.5,,,,0,0,0,0,0,0,"PPG",0
1,0,0,0,0,2539748,"2017-10-30T00:00:00",0,1.5,1.5,1.5,1.5,1.5,1.5,,,,0,0,0,0,0,0,"PPG",0
1,4,0,0,9700,2539748,"2017-10-27T00:00:00",3900,1.4974358974358974,1.5,1.4,1.5,1.4,1.5,,,,0,0,4,0,0,4900,"PPG",5840000
1,0,0,0,0,2539748,"2017-10-26T00:00:00",0,1.5,1.5,1.5,1.5,1.5,1.5,,,,0,0,0,0,0,0,"PPG",0
1,0,0,0,0,2539748,"2017-10-25T00:00:00",0,1.5,1.5,1.5,1.5,1.5,1.5,,,,0,0,0,0,0,0,"PPG",0
1,0,0,0,0,2539748,"2017-10-24T00:00:00",0,1.5,1.5,1.5,1.5,1.5,1.5,,,,0,0,0,0,0,0,"PPG",0
1,0,0,0,0,2539748,"2017-10-23T00:00:00",0,1.5,1.5,1.5,1.5,1.5,1.5,,,,0,0,0,0,0,0,"PPG",0
1,4,0,0,11400,2539748,"2017-10-20T00:00:00",2000,1.5,1.5,1.5,1.5,1.5,1.5,,,,0,0,3,0,0,2400,"PPG",3000000
1,0,0,0,0,2539748,"2017-10-19T00:00:00",0,1.5,1.5,1.5,1.5,1.5,1.5,,,,0,0,0,0,0,0,"PPG",0
1,0,0,0,0,2539748,"2017-10-18T00:00:00",0,1.5,1.5,1.5,1.5,1.5,1.5,,,,0,0,0,0,0,0,"PPG",0
1,0,0,0,0,2539748,"2017-10-17T00:00:00",0,1.5,1.5,1.5,1.5,1.5,1.5,,,,0,0,0,0,0,0,"PPG",0
1,0,0,0,0,2539748,"2017-10-16T00:00:00",0,1.5,1.5,1.5,1.5,1.5,1.5,,,,0,0,0,0,0,0,"PPG",0
1,3,0,0,3600,2539748,"2017-10-13T00:00:00",2175,1.4919540229885058,1.6,1.5,1.5,1.4,1.4,,,,0,0,6,0,0,4600,"PPG",3245000
1,0,0,0,0,2539748,"2017-10-12T00:00:00",0,1.6,1.6,1.6,1.6,1.6,1.6,,,,0,0,0,0,0,0,"PPG",0
1,0,0,0,0,2539748,"2017-10-11T00:00:00",0,1.6,1.6,1.6,1.6,1.6,1.6,,,,0,0,0,0,0,0,"PPG",0
1,0,0,0,0,2539748,"2017-10-10T00:00:00",0,1.6,1.6,1.6,1.6,1.6,1.6,,,,0,0,0,0,0,0,"PPG",0
1,0,0,0,0,2539748,"2017-10-09T00:00:00",0,1.6,1.6,1.6,1.6,1.6,1.6,,,,0,0,0,0,0,0,"PPG",0
1,2,0,0,1600,2539748,"2017-10-06T00:00:00",1600,1.6,1.8,1.6,1.6,1.6,1.6,,,,0,0,5,0,0,10200,"PPG",2560000
1,0,0,0,0,2539748,"2017-10-05T00:00:00",0,1.8,1.8,1.8,1.8,1.8,1.8,,,,0,0,0,0,0,0,"PPG",0
1,0,0,0,0,2539748,"2017-10-04T00:00:00",0,1.8,1.8,1.8,1.8,1.8,1.8,,,,0,0,0,0,0,0,"PPG",0
1,0,0,0,0,2539748,"2017-10-03T00:00:00",0,1.8,1.8,1.8,1.8,1.8,1.8,,,,0,0,0,0,0,0,"PPG",0
1,0,0,0,0,2539748,"2017-10-02T00:00:00",0,1.8,1.8,1.8,1.8,1.8,1.8,,,,0,0,0,0,0,0,"PPG",0
1,1,0,0,2000,2539748,"2017-09-29T00:00:00",0,1.8,1.8,1.8,1.8,1.8,1.8,,,,0,0,3,0,0,44500,"PPG",0
1,0,0,0,0,2539748,"2017-09-28T00:00:00",0,1.8,1.8,1.8,1.8,1.8,1.8,,,,0,0,0,0,0,0,"PPG",0
1,0,0,0,0,2539748,"2017-09-27T00:00:00",0,1.8,1.8,1.8,1.8,1.8,1.8,,,,0,0,0,0,0,0,"PPG",0
1,0,0,0,0,2539748,"2017-09-26T00:00:00",0,1.8,1.8,1.8,1.8,1.8,1.8,,,,0,0,0,0,0,0,"PPG",0
1,0,0,0,0,2539748,"2017-09-25T00:00:00",0,1.8,1.8,1.8,1.8,1.8,1.8,,,,0,0,0,0,0,0,"PPG",0
1,2,0,0,6900,2539748,"2017-09-22T00:00:00",5080,1.8,1.8,1.8,1.8,1.8,1.8,,,,0,0,3,0,0,32300,"PPG",9144000
1,0,0,0,0,2539748,"2017-09-21T00:00:00",0,1.8,1.8,1.8,1.8,1.8,1.8,,,,0,0,0,0,0,0,"PPG",0
1,0,0,0,0,2539748,"2017-09-20T00:00:00",0,1.8,1.8,1.8,1.8,1.8,1.8,,,,0,0,0,0,0,0,"PPG",0
1,0,0,0,0,2539748,"2017-09-19T00:00:00",0,1.8,1.8,1.8,1.8,1.8,1.8,,,,0,0,0,0,0,0,"PPG",0
1,0,0,0,0,2539748,"2017-09-18T00:00:00",0,1.8,1.8,1.8,1.8,1.8,1.8,,,,0,0,0,0,0,0,"PPG",0
1,2,0,0,3000,2539748,"2017-09-15T00:00:00",1930,1.8,1.8,1.8,1.8,1.8,1.8,,,,0,0,4,0,0,29300,"PPG",3474000
1,0,0,0,0,2539748,"2017-09-14T00:00:00",0,1.8,1.8,1.8,1.8,1.8,1.8,,,,0,0,0,0,0,0,"PPG",0
1,0,0,0,0,2539748,"2017-09-13T00:00:00",0,1.8,1.8,1.8,1.8,1.8,1.8,,,,0,0,0,0,0,0,"PPG",0
1,0,0,0,0,2539748,"2017-09-12T00:00:00",0,1.8,1.8,1.8,1.8,1.8,1.8,,,,0,0,0,0,0,0,"PPG",0
1,0,0,0,0,2539748,"2017-09-11T00:00:00",0,1.8,1.8,1.8,1.8,1.8,1.8,,,,0,0,0,0,0,0,"PPG",0
1,4,0,0,10100,2539748,"2017-09-08T00:00:00",7100,1.7971830985915491,1.8,1.8,1.8,1.6,1.6,,,,0,0,5,0,0,39500,"PPG",12760000
1,0,0,0,0,2539748,"2017-09-07T00:00:00",0,1.8,1.8,1.8,1.8,1.8,1.8,,,,0,0,0,0,0,0,"PPG",0
1,0,0,0,0,2539748,"2017-09-06T00:00:00",0,1.8,1.8,1.8,1.8,1.8,1.8,,,,0,0,0,0,0,0,"PPG",0
1,0,0,0,0,2539748,"2017-09-05T00:00:00",0,1.8,1.8,1.8,1.8,1.8,1.8,,,,0,0,0,0,0,0,"PPG",0
1,4,0,0,24500,2539748,"2017-09-01T00:00:00",13400,1.8,1.8,1.8,1.8,1.8,1.8,,,,0,0,8,0,0,42300,"PPG",24120000
1,0,0,0,0,2539748,"2017-08-31T00:00:00",0,1.8,1.8,1.8,1.8,1.8,1.8,,,,0,0,0,0,0,0,"PPG",0
1,0,0,0,0,2539748,"2017-08-30T00:00:00",0,1.8,1.8,1.8,1.8,1.8,1.8,,,,0,0,0,0,0,0,"PPG",0
1,0,0,0,0,2539748,"2017-08-29T00:00:00",0,1.8,1.8,1.8,1.8,1.8,1.8,,,,0,0,0,0,0,0,"PPG",0
1,0,0,0,0,2539748,"2017-08-28T00:00:00",0,1.8,1.8,1.8,1.8,1.8,1.8,,,,0,0,0,0,0,0,"PPG",0
1,3,0,0,9100,2539748,"2017-08-25T00:00:00",0,1.8,1.8,1.8,1.8,1.8,1.8,,,,0,0,4,0,0,1500,"PPG",0
1,0,0,0,0,2539748,"2017-08-24T00:00:00",0,1.8,1.8,1.8,1.8,1.8,1.8,,,,0,0,0,0,0,0,"PPG",0
1,0,0,0,0,2539748,"2017-08-23T00:00:00",0,1.8,1.8,1.8,1.8,1.8,1.8,,,,0,0,0,0,0,0,"PPG",0
1,0,0,0,0,2539748,"2017-08-22T00:00:00",0,1.8,1.8,1.8,1.8,1.8,1.8,,,,0,0,0,0,0,0,"PPG",0
1,0,0,0,0,2539748,"2017-08-21T00:00:00",0,1.8,1.8,1.8,1.8,1.8,1.8,,,,0,0,0,0,0,0,"PPG",0
1,5,0,0,23500,2539748,"2017-08-18T00:00:00",11425,1.7853391684901532,1.7,1.8,1.8,1.6,1.8,,,,0,0,6,0,0,11900,"PPG",20397500
1,0,0,0,0,2539748,"2017-08-17T00:00:00",0,1.7,1.7,1.7,1.7,1.7,1.7,,,,0,0,0,0,0,0,"PPG",0
1,0,0,0,0,2539748,"2017-08-16T00:00:00",0,1.7,1.7,1.7,1.7,1.7,1.7,,,,0,0,0,0,0,0,"PPG",0
1,0,0,0,0,2539748,"2017-08-15T00:00:00",0,1.7,1.7,1.7,1.7,1.7,1.7,,,,0,0,0,0,0,0,"PPG",0
1,0,0,0,0,2539748,"2017-08-14T00:00:00",0,1.7,1.7,1.7,1.7,1.7,1.7,,,,0,0,0,0,0,0,"PPG",0
1,2,0,0,25000,2539748,"2017-08-11T00:00:00",0,1.7,1.7,1.7,1.7,1.7,1.7,,,,0,0,1,0,0,27000,"PPG",0
1,0,0,0,0,2539748,"2017-08-10T00:00:00",0,1.7,1.7,1.7,1.7,1.7,1.7,,,,0,0,0,0,0,0,"PPG",0
1,0,0,0,0,2539748,"2017-08-09T00:00:00",0,1.7,1.7,1.7,1.7,1.7,1.7,,,,0,0,0,0,0,0,"PPG",0
1,0,0,0,0,2539748,"2017-08-08T00:00:00",0,1.7,1.7,1.7,1.7,1.7,1.7,,,,0,0,0,0,0,0,"PPG",0
1,0,0,0,0,2539748,"2017-08-07T00:00:00",0,1.7,1.7,1.7,1.7,1.7,1.7,,,,0,0,0,0,0,0,"PPG",0
1,2,0,0,35000,2539748,"2017-08-04T00:00:00",0,1.7,1.7,1.7,1.7,1.7,1.7,,,,0,0,3,0,0,28000,"PPG",0
1,0,0,0,0,2539748,"2017-08-03T00:00:00",0,1.7,1.7,1.7,1.7,1.7,1.7,,,,0,0,0,0,0,0,"PPG",0
1,0,0,0,0,2539748,"2017-08-02T00:00:00",0,1.7,1.7,1.7,1.7,1.7,1.7,,,,0,0,0,0,0,0,"PPG",0
1,0,0,0,0,2539748,"2017-08-01T00:00:00",0,1.7,1.7,1.7,1.7,1.7,1.7,,,,0,0,0,0,0,0,"PPG",0
1,0,0,0,0,2539748,"2017-07-31T00:00:00",0,1.7,1.7,1.7,1.7,1.7,1.7,,,,0,0,0,0,0,0,"PPG",0
1,3,0,0,14000,2539748,"2017-07-28T00:00:00",0,1.7,1.7,1.7,1.7,1.7,1.7,,,,0,0,3,0,0,32900,"PPG",0
1,0,0,0,0,2539748,"2017-07-27T00:00:00",0,1.7,1.7,1.7,1.7,1.7,1.7,,,,0,0,0,0,0,0,"PPG",0
1,0,0,0,0,2539748,"2017-07-26T00:00:00",0,1.7,1.7,1.7,1.7,1.7,1.7,,,,0,0,0,0,0,0,"PPG",0
1,0,0,0,0,2539748,"2017-07-25T00:00:00",0,1.7,1.7,1.7,1.7,1.7,1.7,,,,0,0,0,0,0,0,"PPG",0
1,0,0,0,0,2539748,"2017-07-24T00:00:00",0,1.7,1.7,1.7,1.7,1.7,1.7,,,,0,0,0,0,0,0,"PPG",0
1,2,0,0,4000,2539748,"2017-07-21T00:00:00",1500,1.7,1.9,1.7,1.7,1.7,1.7,,,,0,0,5,0,0,3600,"PPG",2550000
1,0,0,0,0,2539748,"2017-07-20T00:00:00",0,1.9,1.9,1.9,1.9,1.9,1.9,,,,0,0,0,0,0,0,"PPG",0
1,0,0,0,0,2539748,"2017-07-19T00:00:00",0,1.9,1.9,1.9,1.9,1.9,1.9,,,,0,0,0,0,0,0,"PPG",0
1,0,0,0,0,2539748,"2017-07-18T00:00:00",0,1.9,1.9,1.9,1.9,1.9,1.9,,,,0,0,0,0,0,0,"PPG",0
1,0,0,0,0,2539748,"2017-07-17T00:00:00",0,1.9,1.9,1.9,1.9,1.9,1.9,,,,0,0,0,0,0,0,"PPG",0
1,1,0,0,500,2539748,"2017-07-14T00:00:00",0,1.9,1.9,1.9,1.9,1.9,1.9,,,,0,0,3,0,0,11500,"PPG",0
1,0,0,0,0,2539748,"2017-07-13T00:00:00",0,1.9,1.9,1.9,1.9,1.9,1.9,,,,0,0,0,0,0,0,"PPG",0
1,0,0,0,0,2539748,"2017-07-12T00:00:00",0,1.9,1.9,1.9,1.9,1.9,1.9,,,,0,0,0,0,0,0,"PPG",0
1,0,0,0,0,2539748,"2017-07-11T00:00:00",0,1.9,1.9,1.9,1.9,1.9,1.9,,,,0,0,0,0,0,0,"PPG",0
1,0,0,0,0,2539748,"2017-07-10T00:00:00",0,1.9,1.9,1.9,1.9,1.9,1.9,,,,0,0,0,0,0,0,"PPG",0
1,1,0,0,500,2539748,"2017-07-07T00:00:00",0,1.9,1.9,1.9,1.9,1.9,1.9,,,,0,0,3,0,0,11500,"PPG",0
1,0,0,0,0,2539748,"2017-07-06T00:00:00",0,1.9,1.9,1.9,1.9,1.9,1.9,,,,0,0,0,0,0,0,"PPG",0
1,0,0,0,0,2539748,"2017-07-05T00:00:00",0,1.9,1.9,1.9,1.9,1.9,1.9,,,,0,0,0,0,0,0,"PPG",0
1,0,0,0,0,2539748,"2017-07-04T00:00:00",0,1.9,1.9,1.9,1.9,1.9,1.9,,,,0,0,0,0,0,0,"PPG",0
1,0,0,0,0,2539748,"2017-07-03T00:00:00",0,1.9,1.9,1.9,1.9,1.9,1.9,,,,0,0,0,0,0,0,"PPG",0
1,3,0,0,5600,2539748,"2017-06-30T00:00:00",0,1.9,1.9,1.9,1.9,1.9,1.9,,,,0,0,2,0,0,5900,"PPG",0
1,0,0,0,0,2539748,"2017-06-29T00:00:00",0,1.9,1.9,1.9,1.9,1.9,1.9,,,,0,0,0,0,0,0,"PPG",0
1,0,0,0,0,2539748,"2017-06-28T00:00:00",0,1.9,1.9,1.9,1.9,1.9,1.9,,,,0,0,0,0,0,0,"PPG",0
1,0,0,0,0,2539748,"2017-06-27T00:00:00",0,1.9,1.9,1.9,1.9,1.9,1.9,,,,0,0,0,0,0,0,"PPG",0
1,0,0,0,0,2539748,"2017-06-26T00:00:00",0,1.9,1.9,1.9,1.9,1.9,1.9,,,,0,0,0,0,0,0,"PPG",0
1,5,0,0,13000,2539748,"2017-06-23T00:00:00",200,1.9,1.8,1.9,1.9,1.9,1.9,,,,0,0,3,0,0,5500,"PPG",380000
1,12,0,0,26900,2539748,"2017-06-22T00:00:00",4000,1.8,1.6,1.8,1.8,1.8,1.8,,,,0,0,5,0,0,4000,"PPG",7200000
1,3,0,0,12700,2539748,"2017-06-21T00:00:00",600,1.6,1.7,1.6,1.6,1.6,1.6,,,,0,0,3,0,0,4100,"PPG",960000
1,3,0,0,16700,2539748,"2017-06-20T00:00:00",0,1.7,1.7,1.7,1.7,1.7,1.7,,,,0,0,3,0,0,1000,"PPG",0
1,7,0,0,42500,2539748,"2017-06-19T00:00:00",300,1.7,1.6,1.7,1.7,1.7,1.7,,,,0,0,2,0,0,1100,"PPG",510000
1,7,0,0,20500,2539748,"2017-06-16T00:00:00",7000,1.6,1.7,1.6,1.6,1.6,1.6,,,,0,0,4,0,0,9100,"PPG",11200000
1,12,0,0,65200,2539748,"2017-06-15T00:00:00",6200,1.7,1.6,1.7,1.7,1.7,1.7,,,,0,0,7,0,0,8300,"PPG",10540000
1,3,0,0,3800,2539748,"2017-06-14T00:00:00",0,1.6,1.6,1.6,1.6,1.6,1.6,,,,0,0,2,0,0,200,"PPG",0
1,3,0,0,7100,2539748,"2017-06-13T00:00:00",0,1.6,1.6,1.6,1.6,1.6,1.6,,,,0,0,2,0,0,400,"PPG",0
1,2,0,0,7000,2539748,"2017-06-12T00:00:00",100,1.6,1.7,1.6,1.6,1.6,1.6,,,,0,0,8,0,0,22500,"PPG",160000
1,1,0,0,10000,2539748,"2017-06-09T00:00:00",0,1.7,1.7,1.7,1.7,1.7,1.7,,,,0,0,5,0,0,5800,"PPG",0
1,2,0,0,500,2539748,"2017-06-08T00:00:00",0,1.7,1.7,1.7,1.7,1.7,1.7,,,,0,0,5,0,0,10400,"PPG",0
1,2,0,0,500,2539748,"2017-06-07T00:00:00",150,1.7,1.7,1.7,1.7,1.7,1.7,,,,0,0,3,0,0,1200,"PPG",255000
1,2,0,0,9500,2539748,"2017-06-06T00:00:00",0,1.7,1.7,1.7,1.7,1.7,1.7,,,,0,0,4,0,0,2200,"PPG",0
1,4,0,0,13300,2539748,"2017-06-05T00:00:00",0,1.7,1.7,1.7,1.7,1.7,1.7,,,,0,0,4,0,0,5600,"PPG",0
1,4,0,0,17100,2539748,"2017-06-02T00:00:00",900,1.7,1.6,1.7,1.7,1.7,1.7,,,,0,0,3,0,0,900,"PPG",1530000
1,5,0,0,9600,2539748,"2017-06-01T00:00:00",3200,1.6,1.6,1.6,1.6,1.6,1.6,,,,0,0,6,0,0,8700,"PPG",5120000
1,3,0,0,5600,2539748,"2017-05-31T00:00:00",300,1.6,1.8,1.6,1.6,1.6,1.6,,,,0,0,6,0,0,3900,"PPG",480000
1,5,0,0,16200,2539748,"2017-05-30T00:00:00",100,1.8,1.6,1.8,1.8,1.8,1.8,,,,0,0,1,0,0,100,"PPG",180000
1,6,0,0,15500,2539748,"2017-05-29T00:00:00",0,1.6,1.6,1.6,1.6,1.6,1.6,,,,0,0,2,0,0,300,"PPG",0
1,4,0,0,10700,2539748,"2017-05-26T00:00:00",0,1.6,1.6,1.6,1.6,1.6,1.6,,,,0,0,3,0,0,5200,"PPG",0
1,4,0,0,10500,2539748,"2017-05-25T00:00:00",0,1.6,1.6,1.6,1.6,1.6,1.6,,,,0,0,2,0,0,5100,"PPG",0
1,8,0,0,13400,2539748,"2017-05-24T00:00:00",0,1.6,1.6,1.6,1.6,1.6,1.6,,,,0,0,2,0,0,100,"PPG",0
1,3,0,0,10000,2539748,"2017-05-23T00:00:00",1035,1.6,1.7,1.6,1.6,1.6,1.6,,,,0,0,3,0,0,7100,"PPG",1656000
1,2,0,0,10000,2539748,"2017-05-22T00:00:00",0,1.7,1.7,1.7,1.7,1.7,1.7,,,,0,0,3,0,0,6800,"PPG",0
1,5,0,0,12100,2539748,"2017-05-19T00:00:00",2600,1.6807692307692308,1.7,1.6,1.7,1.6,1.7,,,,0,0,4,0,0,8500,"PPG",4370000
1,6,0,0,19800,2539748,"2017-05-18T00:00:00",18000,1.7166666666666668,1.8,1.7,1.8,1.7,1.8,,,,0,0,12,0,0,24900,"PPG",30900000
1,2,0,0,10100,2539748,"2017-05-17T00:00:00",0,1.8,1.8,1.8,1.8,1.8,1.8,,,,0,0,2,0,0,14100,"PPG",0
1,8,0,0,21500,2539748,"2017-05-16T00:00:00",7100,1.7985915492957747,1.9,1.8,1.8,1.7,1.8,,,,0,0,5,0,0,13200,"PPG",12770000
1,4,0,0,8900,2539748,"2017-05-15T00:00:00",0,1.9,1.9,1.9,1.9,1.9,1.9,,,,0,0,1,0,0,10000,"PPG",0
1,3,0,0,20000,2539748,"2017-05-12T00:00:00",0,1.9,1.9,1.9,1.9,1.9,1.9,,,,0,0,4,0,0,16600,"PPG",0
1,7,0,0,33300,2539748,"2017-05-11T00:00:00",16250,1.89,1.9,1.9,1.9,1.8,1.8,,,,0,0,7,0,0,30900,"PPG",30712500
1,3,0,0,16000,2539748,"2017-05-10T00:00:00",4400,1.9,1.9,1.9,1.9,1.9,1.9,,,,0,0,4,0,0,8800,"PPG",8360000
1,5,0,0,16300,2539748,"2017-05-09T00:00:00",8500,1.9,1.9,1.9,1.9,1.9,1.9,,,,0,0,8,0,0,13100,"PPG",16150000
1,4,0,0,9100,2539748,"2017-05-08T00:00:00",4000,1.9,1.9,1.9,1.9,1.9,1.9,,,,0,0,2,0,0,8100,"PPG",7600000
1,3,0,0,12800,2539748,"2017-05-05T00:00:00",0,1.9,1.9,1.9,1.9,1.9,1.9,,,,0,0,1,0,0,4100,"PPG",0
1,3,0,0,5000,2539748,"2017-05-04T00:00:00",1000,1.9,1.9,1.9,1.9,1.9,1.9,,,,0,0,3,0,0,7100,"PPG",1900000
1,2,0,0,2800,2539748,"2017-05-03T00:00:00",300,1.9,1.9,1.9,1.9,1.9,1.9,,,,0,0,2,0,0,4400,"PPG",570000
1,1,0,0,4500,2539748,"2017-04-28T00:00:00",0,1.9,1.9,1.9,1.9,1.9,1.9,,,,0,0,3,0,0,4900,"PPG",0
1,3,0,0,10200,2539748,"2017-04-27T00:00:00",0,1.9,1.9,1.9,1.9,1.9,1.9,,,,0,0,2,0,0,4400,"PPG",0
1,3,0,0,13600,2539748,"2017-04-26T00:00:00",0,1.9,1.9,1.9,1.9,1.9,1.9,,,,0,0,4,0,0,5200,"PPG",0
1,5,0,0,15700,2539748,"2017-04-25T00:00:00",0,1.9,1.9,1.9,1.9,1.9,1.9,,,,0,0,2,0,0,700,"PPG",0
1,3,0,0,10300,2539748,"2017-04-24T00:00:00",100,1.9,1.8,1.9,1.9,1.9,1.9,,,,0,0,2,0,0,4700,"PPG",190000
1,4,0,0,17100,2539748,"2017-04-21T00:00:00",10000,1.8,1.9,1.8,1.8,1.8,1.8,,,,0,0,8,0,0,16000,"PPG",18000000
1,4,0,0,13900,2539748,"2017-04-20T00:00:00",100,1.9,1.8,1.9,1.9,1.9,1.9,,,,0,0,4,0,0,4900,"PPG",190000
1,4,0,0,12900,2539748,"2017-04-19T00:00:00",2950,1.8,1.9,1.8,1.8,1.8,1.8,,,,0,0,4,0,0,7600,"PPG",5310000
1,3,0,0,11200,2539748,"2017-04-18T00:00:00",100,1.9,1.8,1.9,1.9,1.9,1.9,,,,0,0,2,0,0,4800,"PPG",190000
1,2,0,0,11100,2539748,"2017-04-17T00:00:00",0,1.8,1.8,1.8,1.8,1.8,1.8,,,,0,0,2,0,0,4300,"PPG",0
1,4,0,0,15000,2539748,"2017-04-14T00:00:00",500,1.8,1.9,1.8,1.8,1.8,1.8,,,,0,0,8,0,0,5800,"PPG",900000
1,3,0,0,15100,2539748,"2017-04-13T00:00:00",0,1.9,1.9,1.9,1.9,1.9,1.9,,,,0,0,3,0,0,12700,"PPG",0
1,4,0,0,15600,2539748,"2017-04-12T00:00:00",0,1.9,1.9,1.9,1.9,1.9,1.9,,,,0,0,3,0,0,9400,"PPG",0
1,8,0,0,46400,2539748,"2017-04-11T00:00:00",100,1.9,1.8,1.9,1.9,1.9,1.9,,,,0,0,2,0,0,4500,"PPG",190000
1,4,0,0,17300,2539748,"2017-04-10T00:00:00",3500,1.8,1.8,1.8,1.8,1.8,1.8,,,,0,0,3,0,0,7700,"PPG",6300000
1,4,0,0,12300,2539748,"2017-04-07T00:00:00",100,1.8,1.8,1.8,1.8,1.8,1.8,,,,0,0,3,0,0,4600,"PPG",180000
1,4,0,0,14000,2539748,"2017-04-05T00:00:00",1300,1.8,1.9,1.8,1.8,1.8,1.8,,,,0,0,3,0,0,5800,"PPG",2340000
1,3,0,0,19000,2539748,"2017-04-04T00:00:00",0,1.9,1.9,1.9,1.9,1.9,1.9,,,,0,0,3,0,0,4500,"PPG",0
1,3,0,0,15500,2539748,"2017-04-03T00:00:00",0,1.9,1.9,1.9,1.9,1.9,1.9,,,,0,0,2,0,0,14200,"PPG",0
1,5,0,0,11600,2539748,"2017-03-31T00:00:00",100,1.9,1.8,1.9,1.9,1.9,1.9,,,,0,0,2,0,0,4400,"PPG",190000
1,8,0,0,36900,2539748,"2017-03-30T00:00:00",10600,1.8,1.8,1.8,1.8,1.8,1.8,,,,0,0,2,0,0,20600,"PPG",19080000
1,1,0,0,10000,2539748,"2017-03-29T00:00:00",1000,1.8,1.9,1.8,1.8,1.8,1.8,,,,0,0,7,0,0,20100,"PPG",1800000
1,3,0,0,25000,2539748,"2017-03-28T00:00:00",10000,1.9,2.1,1.9,1.9,1.9,1.9,,,,0,0,5,0,0,19300,"PPG",19000000
1,3,0,0,20100,2539748,"2017-03-27T00:00:00",0,2.1,2.1,2.1,2.1,2.1,2.1,,,,0,0,4,0,0,16700,"PPG",0
1,1,0,0,10000,2539748,"2017-03-24T00:00:00",0,2.1,2.1,2.1,2.1,2.1,2.1,,,,0,0,6,0,0,7300,"PPG",0
1,2,0,0,10600,2539748,"2017-03-23T00:00:00",660,2.1,1.9,2.1,2.1,2.1,2.1,,,,0,0,2,0,0,5000,"PPG",1386000
1,2,0,0,12000,2539748,"2017-03-22T00:00:00",10,1.9,1.9,1.9,1.9,1.9,1.9,,,,0,0,2,0,0,2200,"PPG",19000
1,4,0,0,12800,2539748,"2017-03-21T00:00:00",1600,1.9,1.8,1.9,1.9,1.9,1.9,,,,0,0,3,0,0,6700,"PPG",3040000
1,4,0,0,22900,2539748,"2017-03-20T00:00:00",12950,1.8,1.9,1.8,1.8,1.8,1.8,,,,0,0,4,0,0,17100,"PPG",23310000
1,4,0,0,13900,2539748,"2017-03-17T00:00:00",0,1.9,1.9,1.9,1.9,1.9,1.9,,,,0,0,2,0,0,1700,"PPG",0
1,4,0,0,13900,2539748,"2017-03-16T00:00:00",1100,1.9,1.9,1.9,1.9,1.9,1.9,,,,0,0,2,0,0,1200,"PPG",2090000
1,7,0,0,71200,2539748,"2017-03-15T00:00:00",57000,1.9,1.9,1.9,1.9,1.9,1.9,,,,0,0,8,0,0,58400,"PPG",108300000
1,2,0,0,10500,2539748,"2017-03-14T00:00:00",200,1.9,2,1.9,1.9,1.9,1.9,,,,0,0,3,0,0,1400,"PPG",380000
1,1,0,0,15000,2539748,"2017-03-13T00:00:00",75,2,2,2,2,2,2,,,,0,0,4,0,0,3200,"PPG",150000
1,2,0,0,10100,2539748,"2017-03-10T00:00:00",100,2,1.9,2,2,2,2,,,,0,0,2,0,0,58100,"PPG",200000
1,3,0,0,12900,2539748,"2017-03-09T00:00:00",300,1.9,2,1.9,1.9,1.9,1.9,,,,0,0,8,0,0,70500,"PPG",570000
1,3,0,0,17900,2539748,"2017-03-08T00:00:00",1200,2,2,2,2,2,2,,,,0,0,2,0,0,2400,"PPG",2400000
1,3,0,0,10800,2539748,"2017-03-07T00:00:00",300,2,1.9,2,2,2,2,,,,0,0,4,0,0,6900,"PPG",600000
1,11,0,0,69100,2539748,"2017-03-06T00:00:00",21000,1.9052380952380952,1.9,1.9,2,1.9,2,,,,0,0,6,0,0,83800,"PPG",40010000
1,7,0,0,46100,2539748,"2017-03-03T00:00:00",1330,1.9,2,1.9,1.9,1.9,1.9,,,,0,0,8,0,0,68700,"PPG",2527000
1,7,0,0,17300,2539748,"2017-03-02T00:00:00",3000,2,1.9,2,2,2,2,,,,0,0,6,0,0,12000,"PPG",6000000
1,8,0,0,39500,2539748,"2017-03-01T00:00:00",20010,1.9,2,1.9,1.9,1.9,1.9,,,,0,0,14,0,0,61500,"PPG",38019000
1,6,0,0,17000,2519748,"2017-02-28T00:00:00",4500,2,2,2,2,2,2,,,,0,0,13,0,0,48700,"PPG",9000000
1,9,0,0,42500,2519748,"2017-02-27T00:00:00",18025,2.083,2.1,2,2.1,2,2.1,,,,0,0,14,0,0,60300,"PPG",37546075
1,4,0,0,40300,2519748,"2017-02-24T00:00:00",23000,2.1,2.1,2.1,2.1,2.1,2.1,,,,0,0,11,20000,42000000,115900,"PPG",48300000
1,6,0,0,49000,2519748,"2017-02-23T00:00:00",26300,2.1,2.2,2.1,2.1,2.1,2.1,,,,0,0,11,0,0,129600,"PPG",55230000
1,4,0,0,16800,2519748,"2017-02-22T00:00:00",1800,2.156,2.1,2.2,2.2,2.1,2.1,,,,0,0,10,0,0,52000,"PPG",3880800
1,2,0,0,38500,2519748,"2017-02-21T00:00:00",0,2.1,2.1,2.1,2.1,2.1,2.1,,,,0,0,8,0,0,61300,"PPG",0
1,5,0,0,81900,2511548,"2017-02-20T00:00:00",41900,2.1,2,2.1,2.1,2.1,2.1,,,,0,0,13,0,0,57700,"PPG",87990000
1,4,0,0,37800,2511548,"2017-02-17T00:00:00",500,2,2,2,2,2,2,,,,0,0,8,0,0,37400,"PPG",1000000
1,8,0,0,51000,2511548,"2017-02-16T00:00:00",27500,2,1.9,2,2,2,2,,,,0,0,13,8200,16400000,58500,"PPG",55000000
1,4,0,0,25100,2511548,"2017-02-15T00:00:00",5000,1.9,2,1.9,1.9,1.9,1.9,,,,0,0,9,0,0,41000,"PPG",9500000
1,6,0,0,26300,2481548,"2017-02-14T00:00:00",13000,2,2,2,2,2,2,,,,0,0,7,0,0,33600,"PPG",26000000
1,8,0,0,40200,2429748,"2017-02-13T00:00:00",14200,1.953,1.9,2,2,1.9,1.9,,,,0,0,9,0,0,27700,"PPG",27732600
1,13,0,0,139600,2424748,"2017-02-10T00:00:00",71600,1.9,1.9,1.9,2,1.9,1.9,,,,0,0,15,30000,57000000,120300,"PPG",136040000
1,11,0,0,113100,2409848,"2017-02-09T00:00:00",81200,1.904,1.9,1.9,2,1.9,2,,,,0,0,21,51800,98700000,139400,"PPG",154604800
1,8,0,0,62000,2409848,"2017-02-08T00:00:00",21100,1.98,1.9,1.9,2.1,1.8,1.8,,,,0,0,10,5000,10000000,54000,"PPG",41778000
1,23,0,0,234400,2409848,"2017-02-07T00:00:00",182200,1.893,1.7,1.9,1.9,1.7,1.7,,,,0,0,25,14900,28310000,182200,"PPG",344904600
1,10,0,0,48000,2409848,"2017-02-06T00:00:00",30900,1.695,1.7,1.7,1.7,1.5,1.5,,,,0,0,13,0,0,83900,"PPG",52375500
1,3,0,0,4800,2409848,"2017-02-03T00:00:00",800,1.725,1.7,1.7,1.9,1.7,1.9,,,,0,0,9,0,0,34100,"PPG",1380000
1,4,0,0,6800,2409848,"2017-02-02T00:00:00",100,1.7,1.5,1.7,1.7,1.7,1.7,,,,0,0,2,0,0,3200,"PPG",170000
1,7,0,0,5700,2409848,"2017-01-25T00:00:00",5700,1.5,1.7,1.5,1.5,1.5,1.5,,,,0,0,8,0,0,20800,"PPG",8550000
1,5,0,0,10600,2409848,"2017-01-24T00:00:00",100,1.7,1.5,1.7,1.7,1.7,1.7,,,,0,0,3,0,0,17100,"PPG",170000
1,2,0,0,5100,2409848,"2017-01-23T00:00:00",100,1.5,1.4,1.5,1.5,1.5,1.5,,,,0,0,7,0,0,25400,"PPG",150000
1,9,0,0,12600,2409848,"2017-01-20T00:00:00",9300,1.401,1.5,1.4,1.5,1.4,1.5,,,,0,0,8,0,0,50300,"PPG",13029300
1,2,0,0,4000,2409848,"2017-01-19T00:00:00",0,1.5,1.5,1.5,1.5,1.5,1.5,,,,0,0,2,0,0,12100,"PPG",0
1,4,0,0,5100,2409848,"2017-01-18T00:00:00",0,1.5,1.5,1.5,1.5,1.5,1.5,,,,0,0,3,0,0,13100,"PPG",0
1,2,0,0,3600,2409848,"2017-01-17T00:00:00",0,1.5,1.5,1.5,1.5,1.5,1.5,,,,0,0,2,0,0,11000,"PPG",0
1,2,0,0,3000,2409848,"2017-01-16T00:00:00",0,1.5,1.5,1.5,1.5,1.5,1.5,,,,0,0,1,0,0,3100,"PPG",0
1,3,0,0,15000,2409848,"2017-01-13T00:00:00",0,1.5,1.5,1.5,1.5,1.5,1.5,,,,0,0,2,0,0,13100,"PPG",0
1,3,0,0,11900,2409848,"2017-01-12T00:00:00",0,1.5,1.5,1.5,1.5,1.5,1.5,,,,0,0,3,0,0,14100,"PPG",0
1,8,0,0,28100,2409848,"2017-01-11T00:00:00",5200,1.5,1.7,1.5,1.5,1.5,1.5,,,,0,0,5,0,0,21300,"PPG",7800000
1,6,0,0,44500,2409848,"2017-01-10T00:00:00",11000,1.5181818181818183,1.5,1.7,1.7,1.5,1.5,,,,0,0,5,0,0,45100,"PPG",16700000
1,3,0,0,12000,2409848,"2017-01-09T00:00:00",1500,1.5,1.7,1.5,1.5,1.5,1.5,,,,0,0,4,0,0,13800,"PPG",2250000
1,2,0,0,6000,2409848,"2017-01-06T00:00:00",0,1.7,1.7,1.7,1.7,1.7,1.7,,,,0,0,4,0,0,22200,"PPG",0
1,2,0,0,31000,2409848,"2017-01-05T00:00:00",0,1.7,1.7,1.7,1.7,1.7,1.7,,,,0,0,2,0,0,15000,"PPG",0
1,4,0,0,35100,2409848,"2017-01-04T00:00:00",100,1.7,1.6,1.7,1.7,1.7,1.7,,,,0,0,5,0,0,30000,"PPG",170000
1,11,0,0,58200,2409848,"2017-01-03T00:00:00",26000,1.6,1.5,1.6,1.6,1.6,1.6,,,,0,0,8,0,0,52000,"PPG",41600000
1,7,0,0,24700,2409848,"2016-12-30T00:00:00",5700,1.512,1.6,1.5,1.6,1.5,1.6,,,,0,0,5,0,0,19700,"PPG",8618400
1,4,0,0,6300,2409848,"2016-12-29T00:00:00",0,1.6,1.6,1.6,1.6,1.6,1.6,,,,0,0,3,0,0,17000,"PPG",0
1,4,0,0,10500,2409848,"2016-12-28T00:00:00",5700,1.592982456140351,1.6,1.6,1.6,1.4,1.6,,,,0,0,6,0,0,21700,"PPG",9080000
1,3,0,0,1100,2409848,"2016-12-27T00:00:00",0,1.6,1.6,1.6,1.6,1.6,1.6,,,,0,0,1,0,0,6000,"PPG",0
1,2,0,0,6000,2409848,"2016-12-26T00:00:00",0,1.6,1.6,1.6,1.6,1.6,1.6,,,,0,0,2,0,0,16000,"PPG",0
1,4,0,0,10000,2409848,"2016-12-23T00:00:00",1500,1.6,1.6,1.6,1.6,1.6,1.6,,,,0,0,7,0,0,30500,"PPG",2400000
1,3,0,0,5300,2409848,"2016-12-22T00:00:00",1300,1.6,1.5,1.6,1.6,1.6,1.6,,,,0,0,2,0,0,11300,"PPG",2080000
1,5,0,0,13500,2409848,"2016-12-21T00:00:00",0,1.5,1.5,1.5,1.5,1.5,1.5,,,,0,0,2,0,0,12500,"PPG",0
1,4,0,0,12900,2407848,"2016-12-20T00:00:00",0,1.5,1.5,1.5,1.5,1.5,1.5,,,,0,0,1,0,0,2000,"PPG",0
1,2,0,0,11300,2407848,"2016-12-19T00:00:00",1500,1.5,1.5,1.5,1.5,1.5,1.5,,,,0,0,2,0,0,3500,"PPG",2250000
1,1,0,0,2000,2407848,"2016-12-16T00:00:00",2000,1.5,1.7,1.5,1.5,1.5,1.5,,,,0,0,4,2000,3000000,25800,"PPG",3000000
1,8,0,0,8000,2407848,"2016-12-15T00:00:00",0,1.7,1.7,1.7,1.7,1.7,1.7,,,,0,0,3,0,0,24600,"PPG",0
1,1,0,0,1000,2407848,"2016-12-14T00:00:00",0,1.7,1.7,1.7,1.7,1.7,1.7,,,,0,0,3,0,0,23000,"PPG",0
1,1,0,0,10000,2308848,"2016-12-13T00:00:00",10000,1.7,1.7,1.7,1.7,1.7,1.7,,,,0,0,4,0,0,51500,"PPG",17000000
1,1,0,0,3000,2308848,"2016-12-12T00:00:00",0,1.7,1.7,1.7,1.7,1.7,1.7,,,,0,0,4,0,0,47600,"PPG",0
1,14,0,0,122700,2308848,"2016-12-09T00:00:00",117600,1.7,1.7,1.7,1.7,1.7,1.7,,,,0,0,12,99000,168300000,141200,"PPG",199920000
1,2,0,0,10000,2308848,"2016-12-08T00:00:00",0,1.7,1.7,1.7,1.7,1.7,1.7,,,,0,0,1,0,0,3600,"PPG",0
1,3,0,0,20000,2308848,"2016-12-07T00:00:00",0,1.7,1.7,1.7,1.7,1.7,1.7,,,,0,0,3,0,0,9600,"PPG",0
1,5,0,0,30200,2308848,"2016-12-06T00:00:00",0,1.7,1.7,1.7,1.7,1.7,1.7,,,,0,0,2,0,0,7000,"PPG",0
1,6,0,0,30100,2308848,"2016-12-05T00:00:00",10000,1.7,1.7,1.7,1.7,1.7,1.7,,,,0,0,6,0,0,30000,"PPG",17000000
1,12,0,0,47800,2308848,"2016-12-02T00:00:00",23300,1.7,1.7,1.7,1.7,1.7,1.7,,,,0,0,6,0,0,33300,"PPG",39610000
1,8,0,0,60300,2308848,"2016-12-01T00:00:00",12900,1.7,1.7,1.7,1.7,1.7,1.7,,,,0,0,6,0,0,37900,"PPG",21930000
1,4,0,0,12600,2308848,"2016-11-30T00:00:00",3600,1.7,1.7,1.7,1.7,1.7,1.7,,,,0,0,4,0,0,18600,"PPG",6120000
1,4,0,0,14000,2308848,"2016-11-29T00:00:00",1100,1.7,1.8,1.7,1.7,1.7,1.7,,,,0,0,5,0,0,15100,"PPG",1870000
1,7,0,0,22200,2308848,"2016-11-28T00:00:00",10300,1.721359223300971,1.7,1.8,1.8,1.7,1.7,,,,0,0,6,0,0,31800,"PPG",17730000
1,7,0,0,26600,2308848,"2016-11-25T00:00:00",6000,1.69,1.6,1.6,1.7,1.6,1.7,,,,0,0,4,0,0,26900,"PPG",10140000
1,7,7100,11250000,15700,2304848,"2016-11-24T00:00:00",7200,1.585,1.7,1.6,1.6,1.5,1.6,,,,0,0,7,0,0,33600,"PPG",11412000
1,11,0,0,62700,2311948,"2016-11-23T00:00:00",42940,1.6882626921285515,1.5,1.7,1.7,1.6,1.6,,,,0,0,6,0,0,59800,"PPG",72494000
1,7,0,0,25700,2311948,"2016-11-22T00:00:00",9900,1.5,1.5,1.5,1.5,1.5,1.5,,,,0,0,8,4000,6000000,26100,"PPG",14850000
1,3,0,0,10800,2311948,"2016-11-21T00:00:00",200,1.5,1.5,1.5,1.5,1.5,1.5,,,,0,0,3,0,0,29000,"PPG",300000
1,1,0,0,500,2311948,"2016-11-18T00:00:00",0,1.5,1.5,1.5,1.5,1.5,1.5,,,,0,0,1,0,0,20000,"PPG",0
1,1,0,0,500,2311748,"2016-11-17T00:00:00",0,1.5,1.5,1.5,1.5,1.5,1.5,,,,0,0,2,0,0,10000,"PPG",0
1,5,0,0,12000,2311748,"2016-11-16T00:00:00",6000,1.5,1.4,1.5,1.5,1.5,1.5,,,,0,0,3,0,0,16000,"PPG",9000000
1,4,0,0,11800,2311748,"2016-11-15T00:00:00",200,1.4,1.3,1.4,1.4,1.4,1.4,,,,0,0,1,200,280000,200,"PPG",280000
1,3,0,0,1200,2311748,"2016-11-14T00:00:00",0,1.3,1.3,1.3,1.3,1.3,1.3,,,,0,0,1,0,0,200,"PPG",0
1,3,0,0,6100,2311748,"2016-11-11T00:00:00",2000,1.305,1.5,1.3,1.4,1.3,1.4,,,,0,0,5,0,0,27000,"PPG",2610000
1,3,0,0,11100,2311748,"2016-11-10T00:00:00",100,1.5,1.5,1.5,1.5,1.5,1.5,,,,0,0,4,0,0,32000,"PPG",150000
1,5,0,0,22400,2311748,"2016-11-09T00:00:00",15800,1.5,1.6,1.5,1.5,1.5,1.5,,,,0,0,8,0,0,32000,"PPG",23700000
1,4,0,0,10600,2311748,"2016-11-08T00:00:00",10100,1.402,1.6,1.6,1.6,1.4,1.4,,,,0,0,9,0,0,63000,"PPG",14160200
1,2,0,0,10000,2311748,"2016-11-07T00:00:00",0,1.6,1.6,1.6,1.6,1.6,1.6,,,,0,0,4,0,0,28500,"PPG",0
1,2,0,0,5100,2311748,"2016-11-04T00:00:00",0,1.6,1.7,1.6,1.6,1.6,1.6,,,,0,0,6,0,0,30300,"PPG",0
1,14,0,0,69200,2311748,"2016-11-03T00:00:00",41500,1.599277108433735,1.5,1.7,1.7,1.5,1.5,,,,0,0,10,0,0,41500,"PPG",66369999.99999999
1,10,0,0,41600,2311748,"2016-11-02T00:00:00",22200,1.5,1.4,1.5,1.5,1.5,1.5,,,,0,0,6,0,0,30100,"PPG",33300000
1,4,0,0,6600,2311748,"2016-11-01T00:00:00",600,1.4,1.5,1.4,1.4,1.4,1.4,,,,0,0,8,0,0,24000,"PPG",840000
1,2,0,0,7000,2311748,"2016-10-31T00:00:00",0,1.5,1.5,1.5,1.5,1.5,1.5,,,,0,0,9,0,0,26600,"PPG",0
1,2,0,0,6400,2311748,"2016-10-28T00:00:00",400,1.5,1.5,1.5,1.5,1.5,1.5,,,,0,0,8,0,0,25800,"PPG",600000
1,3,0,0,9100,2311748,"2016-10-27T00:00:00",100,1.5,1.5,1.5,1.5,1.5,1.5,,,,0,0,9,0,0,55400,"PPG",150000
1,10,0,0,16400,2311748,"2016-10-26T00:00:00",7400,1.401,1.5,1.5,1.5,1.4,1.4,,,,0,0,16,0,0,44800,"PPG",10367400
1,3,0,0,7900,2311548,"2016-10-25T00:00:00",3900,1.5,1.5,1.5,1.5,1.5,1.5,,,,0,0,9,0,0,22800,"PPG",5850000
1,5,0,0,15100,2311548,"2016-10-24T00:00:00",100,1.5,1.4,1.5,1.5,1.5,1.5,,,,0,0,11,0,0,44100,"PPG",150000
1,9,0,0,41900,2311548,"2016-10-21T00:00:00",3200,1.4,1.4,1.4,1.4,1.4,1.4,,,,0,0,12,200,280000,12500,"PPG",4480000
1,10,0,0,32200,2311548,"2016-10-20T00:00:00",5100,1.4,1.5,1.4,1.4,1.4,1.4,,,,0,0,8,0,0,21200,"PPG",7140000
1,8,0,0,38300,2311548,"2016-10-19T00:00:00",15400,1.4006493506493507,1.4,1.5,1.5,1.4,1.4,,,,0,0,12,0,0,38500,"PPG",21570000
1,12,0,0,45900,2311548,"2016-10-18T00:00:00",9400,1.4,1.3,1.4,1.4,1.4,1.4,,,,0,0,4,0,0,9400,"PPG",13160000
1,9,0,0,36200,2311548,"2016-10-17T00:00:00",11700,1.299145299145299,1.2,1.3,1.3,1.2,1.3,,,,0,0,5,0,0,11700,"PPG",15200000
1,7,0,0,46000,2311548,"2016-10-14T00:00:00",3300,1.2,1.1,1.2,1.2,1.2,1.2,,,,0,0,2,0,0,3300,"PPG",3960000
1,4,0,0,21700,2311548,"2016-10-13T00:00:00",3500,1.1,1.2,1.1,1.1,1.1,1.1,,,,0,0,5,0,0,15100,"PPG",3850000
1,3,0,0,20200,2311548,"2016-10-12T00:00:00",100,1.2,1.2,1.2,1.2,1.2,1.2,,,,0,0,3,0,0,11000,"PPG",120000
1,2,3000,3600000,5000,2311548,"2016-10-11T00:00:00",5000,1.2,1.3,1.2,1.2,1.2,1.2,,,,0,0,11,0,0,24300,"PPG",6000000
1,0,0,0,0,2314548,"2016-10-10T00:00:00",0,1.3,1.3,1.3,1.3,1.3,1.3,,,,0,0,4,0,0,13800,"PPG",0
1,1,0,0,800,2314548,"2016-10-07T00:00:00",0,1.3,1.3,1.3,1.3,1.3,1.3,,,,0,0,4,0,0,14800,"PPG",0
1,1,0,0,2000,2314548,"2016-10-06T00:00:00",0,1.3,1.3,1.3,1.3,1.3,1.3,,,,0,0,8,0,0,38300,"PPG",0
1,2,0,0,5100,2314548,"2016-10-05T00:00:00",100,1.3,1.3,1.3,1.3,1.3,1.3,,,,0,0,7,0,0,39600,"PPG",130000
1,4,0,0,11000,2314548,"2016-10-04T00:00:00",7500,1.3,1.2,1.3,1.3,1.3,1.3,,,,0,0,3,0,0,22300,"PPG",9750000
1,8,15000,18000000,32800,2314548,"2016-10-03T00:00:00",20300,1.2,1.2,1.2,1.2,1.2,1.2,,,,0,0,6,0,0,44100,"PPG",24360000
1,7,0,0,31400,2329548,"2016-09-30T00:00:00",10200,1.2,1.1,1.2,1.2,1.2,1.2,,,,0,0,4,0,0,11300,"PPG",12240000
1,5,2000,2200000,25000,2329548,"2016-09-29T00:00:00",2000,1.1,1.1,1.1,1.1,1.1,1.1,,,,0,0,2,0,0,2000,"PPG",2200000
1,5,0,0,27200,2324448,"2016-09-28T00:00:00",2200,1.009,1,1.1,1.1,1,1,,,,0,0,5,0,0,9500,"PPG",2219800
1,5,0,0,37600,2324448,"2016-09-27T00:00:00",0,1,1.1,1,1,1,1,,,,67500,75,0,0,0,0,"PPG",67500
1,7,4990,50900000,33100,2324448,"2016-09-26T00:00:00",22200,1.045,1.1,1.1,1.1,1,1,,,,39800000,39800,5,4690,46900000,37200,"PPG",62999000
1,3,0,0,33400,2334548,"2016-09-23T00:00:00",33400,1.1002994011976048,1.2,1.2,1.2,1.1,1.1,,,,0,0,7,0,0,55600,"PPG",36750000
1,0,0,0,0,2334548,"2016-09-22T00:00:00",0,1.2,1.2,1.2,1.2,1.2,1.2,,,,0,0,3,0,0,18200,"PPG",0
1,2,0,0,30200,2334548,"2016-09-21T00:00:00",200,1.2,1.1,1.2,1.2,1.2,1.2,,,,0,0,1,0,0,2600,"PPG",240000
1,2,0,0,35000,2334548,"2016-09-20T00:00:00",20000,1.1,1.1,1.1,1.1,1.1,1.1,,,,0,0,10,0,0,78600,"PPG",22000000
1,0,0,0,0,2334548,"2016-09-19T00:00:00",0,1.1,1.1,1.1,1.1,1.1,1.1,,,,0,0,1,0,0,16300,"PPG",0
1,0,0,0,0,2334548,"2016-09-16T00:00:00",0,1.1,1.1,1.1,1.1,1.1,1.1,,,,0,0,4,0,0,18000,"PPG",0
1,0,0,0,0,2334548,"2016-09-15T00:00:00",0,1.1,1.1,1.1,1.1,1.1,1.1,,,,0,0,1,0,0,2000,"PPG",0
1,0,0,0,0,2334548,"2016-09-14T00:00:00",0,1.1,1.1,1.1,1.1,1.1,1.1,,,,0,0,1,0,0,18800,"PPG",0
1,0,0,0,0,2334548,"2016-09-13T00:00:00",0,1.1,1.1,1.1,1.1,1.1,1.1,,,,0,0,3,0,0,37300,"PPG",0
1,0,0,0,0,2334548,"2016-09-12T00:00:00",0,1.1,1.1,1.1,1.1,1.1,1.1,,,,0,0,3,0,0,34400,"PPG",0
1,0,0,0,0,2334548,"2016-09-09T00:00:00",0,1.1,1.1,1.1,1.1,1.1,1.1,,,,0,0,2,0,0,35100,"PPG",0
1,0,0,0,0,2334548,"2016-09-08T00:00:00",0,1.1,1.1,1.1,1.1,1.1,1.1,,,,0,0,1,0,0,16300,"PPG",0
1,0,0,0,0,2334548,"2016-09-07T00:00:00",0,1.1,1.1,1.1,1.1,1.1,1.1,,,,0,0,3,0,0,37100,"PPG",0
1,0,0,0,0,2334548,"2016-09-06T00:00:00",0,1.1,1.1,1.1,1.1,1.1,1.1,,,,0,0,2,0,0,35100,"PPG",0
1,1,0,0,1000,2334548,"2016-09-05T00:00:00",0,1.1,1.1,1.1,1.1,1.1,1.1,,,,0,0,4,0,0,56100,"PPG",0
1,0,0,0,0,2334548,"2016-09-01T00:00:00",0,1.1,1.1,1.1,1.1,1.1,1.1,,,,0,0,2,0,0,21800,"PPG",0
1,2,0,0,2000,2334548,"2016-08-31T00:00:00",0,1.1,1.1,1.1,1.1,1.1,1.1,,,,0,0,2,0,0,3200,"PPG",0
1,1,0,0,500,2334548,"2016-08-30T00:00:00",0,1.1,1.1,1.1,1.1,1.1,1.1,,,,0,0,3,0,0,22000,"PPG",0
1,0,0,0,0,2334548,"2016-08-29T00:00:00",0,1.1,1.1,1.1,1.1,1.1,1.1,,,,0,0,1,0,0,2000,"PPG",0
1,0,0,0,0,2334548,"2016-08-26T00:00:00",0,1.1,1.1,1.1,1.1,1.1,1.1,,,,0,0,1,0,0,18800,"PPG",0
1,0,0,0,0,2334548,"2016-08-25T00:00:00",0,1.1,1.1,1.1,1.1,1.1,1.1,,,,0,0,3,0,0,37800,"PPG",0
1,0,0,0,0,2334548,"2016-08-24T00:00:00",0,1.1,1.1,1.1,1.1,1.1,1.1,,,,0,0,2,0,0,34300,"PPG",0
1,0,0,0,0,2334548,"2016-08-23T00:00:00",0,1.1,1.1,1.1,1.1,1.1,1.1,,,,0,0,1,0,0,16300,"PPG",0
1,1,0,0,400,2334548,"2016-08-22T00:00:00",0,1.1,1.1,1.1,1.1,1.1,1.1,,,,0,0,3,0,0,53100,"PPG",0
1,2,0,0,1100,2334548,"2016-08-19T00:00:00",0,1.1,1.1,1.1,1.1,1.1,1.1,,,,0,0,3,0,0,53100,"PPG",0
1,0,0,0,0,2334548,"2016-08-18T00:00:00",0,1.1,1.1,1.1,1.1,1.1,1.1,,,,0,0,2,0,0,35100,"PPG",0
1,0,0,0,0,2334548,"2016-08-17T00:00:00",0,1.1,1.1,1.1,1.1,1.1,1.1,,,,0,0,2,0,0,35100,"PPG",0
1,1,0,0,5000,2334548,"2016-08-16T00:00:00",0,1.1,1.1,1.1,1.1,1.1,1.1,,,,0,0,3,0,0,38100,"PPG",0
1,1,0,0,5000,2334548,"2016-08-15T00:00:00",0,1.1,1.1,1.1,1.1,1.1,1.1,,,,0,0,3,0,0,38800,"PPG",0
1,2,0,0,5100,2334548,"2016-08-12T00:00:00",0,1.1,1.1,1.1,1.1,1.1,1.1,,,,0,0,3,0,0,37100,"PPG",0
1,2,0,0,7000,2334548,"2016-08-11T00:00:00",0,1.1,1.1,1.1,1.1,1.1,1.1,,,,0,0,2,0,0,18300,"PPG",0
1,2,0,0,7000,2324548,"2016-08-10T00:00:00",0,1.1,1.1,1.1,1.1,1.1,1.1,,,,0,0,3,0,0,35100,"PPG",0
1,4,0,0,9700,2324548,"2016-08-09T00:00:00",2700,1.1,1.1,1.1,1.1,1.1,1.1,,,,0,0,3,0,0,40000,"PPG",2970000
1,1,0,0,10000,2324548,"2016-08-08T00:00:00",10000,1.1,1.1,1.1,1.1,1.1,1.1,,,,0,0,3,10000,11000000,29300,"PPG",11000000
1,3,0,0,5400,2324548,"2016-08-05T00:00:00",2000,1.1,1.1,1.1,1.1,1.1,1.1,,,,0,0,5,0,0,20500,"PPG",2200000
1,3,0,0,8000,2324548,"2016-08-04T00:00:00",0,1.1,1.1,1.1,1.1,1.1,1.1,,,,0,0,4,0,0,22900,"PPG",0
1,4,0,0,3200,2324548,"2016-08-03T00:00:00",2000,1.05,1.1,1.1,1.1,1,1,,,,0,0,4,0,0,21800,"PPG",2100000
1,2,0,0,3000,2324548,"2016-08-02T00:00:00",300,1.1,1.2,1.1,1.1,1.1,1.1,,,,0,0,4,0,0,18700,"PPG",330000
1,1,0,0,100,2324548,"2016-08-01T00:00:00",0,1.2,1.2,1.2,1.2,1.2,1.2,,,,0,0,5,0,0,23700,"PPG",0
1,0,0,0,0,2324548,"2016-07-29T00:00:00",0,1.2,1.2,1.2,1.2,1.2,1.2,,,,0,0,6,0,0,41500,"PPG",0
1,0,0,0,0,2324548,"2016-07-28T00:00:00",0,1.2,1.2,1.2,1.2,1.2,1.2,,,,0,0,7,0,0,45500,"PPG",0
1,3,0,0,1300,2324548,"2016-07-27T00:00:00",300,1.2,1.1,1.2,1.2,1.2,1.2,,,,0,0,4,0,0,23400,"PPG",360000
1,1,0,0,1000,2319548,"2016-07-26T00:00:00",0,1.1,1.1,1.1,1.1,1.1,1.1,,,,0,0,3,0,0,4600,"PPG",0
1,2,0,0,1000,2319548,"2016-07-25T00:00:00",300,1.1,1,1.1,1.1,1.1,1.1,,,,0,0,2,0,0,1900,"PPG",330000
1,4,0,0,5800,2319548,"2016-07-22T00:00:00",5000,1,1.1,1,1,1,1,,,,0,0,4,5000,5000000,9900,"PPG",5000000
1,2,0,0,6000,2319548,"2016-07-21T00:00:00",0,1.1,1.1,1.1,1.1,1.1,1.1,,,,0,0,5,0,0,25900,"PPG",0
1,1,0,0,1000,2319548,"2016-07-20T00:00:00",0,1.1,1.1,1.1,1.1,1.1,1.1,,,,0,0,3,0,0,4900,"PPG",0
1,3,0,0,2900,2312048,"2016-07-19T00:00:00",0,1.1,1.1,1.1,1.1,1.1,1.1,,,,0,0,5,0,0,30700,"PPG",0
1,3,0,0,7600,2312048,"2016-07-18T00:00:00",400,1.1,1.1,1.1,1.1,1.1,1.1,,,,0,0,5,0,0,24100,"PPG",440000
1,2,0,0,13000,2312048,"2016-07-15T00:00:00",7600,1.1,1.1,1.1,1.1,1.1,1.1,,,,0,0,8,7500,8250000,41300,"PPG",8360000
1,2,0,0,6200,2312048,"2016-07-14T00:00:00",0,1.1,1.1,1.1,1.1,1.1,1.1,,,,0,0,3,0,0,21800,"PPG",0
1,6,0,0,12300,2312048,"2016-07-13T00:00:00",1100,1.1,1.1,1.1,1.1,1.1,1.1,,,,30000,30,2,0,0,13000,"PPG",1240000
1,9,0,0,21300,2312048,"2016-07-12T00:00:00",4900,1.1,1.1,1.1,1.1,1.1,1.1,,,,0,0,2,0,0,5900,"PPG",5390000
1,6,0,0,7900,2312048,"2016-07-11T00:00:00",6600,1.1,1.2,1.1,1.1,1.1,1.1,,,,0,0,8,0,0,29500,"PPG",7260000
1,4,0,0,8000,2312048,"2016-07-08T00:00:00",100,1.2,1.2,1.2,1.2,1.2,1.2,,,,0,0,3,0,0,13600,"PPG",120000
1,8,0,0,18200,2312048,"2016-07-07T00:00:00",10300,1.2,1.2,1.2,1.2,1.2,1.2,,,,0,0,8,0,0,20200,"PPG",12360000
1,2,0,0,4000,2312048,"2016-07-06T00:00:00",0,1.2,1.2,1.2,1.2,1.2,1.2,,,,0,0,1,0,0,3000,"PPG",0
1,3,0,0,3900,2312048,"2016-07-05T00:00:00",0,1.2,1.2,1.2,1.2,1.2,1.2,,,,0,0,3,0,0,6000,"PPG",0
1,3,0,0,7200,2312048,"2016-07-04T00:00:00",1200,1.2,1.2,1.2,1.2,1.2,1.2,,,,0,0,3,0,0,23100,"PPG",1440000
1,8,0,0,10900,2312048,"2016-07-01T00:00:00",4600,1.2,1.2,1.2,1.2,1.2,1.2,,,,0,0,7,0,0,15300,"PPG",5520000
1,8,0,0,14100,2312048,"2016-06-30T00:00:00",7700,1.2,1.2,1.2,1.2,1.2,1.2,,,,0,0,8,0,0,19100,"PPG",9240000
1,3,0,0,7100,2310048,"2016-06-29T00:00:00",100,1.2,1.2,1.2,1.2,1.2,1.2,,,,0,0,4,0,0,29400,"PPG",120000
1,2,0,0,7000,2310048,"2016-06-28T00:00:00",0,1.2,1.2,1.2,1.2,1.2,1.2,,,,0,0,3,0,0,19000,"PPG",0
1,7,0,0,14400,2310048,"2016-06-27T00:00:00",5700,1.181,1.1,1.2,1.2,1.1,1.1,,,,0,0,5,2000,2400000,5700,"PPG",6731700
1,5,0,0,6300,2310048,"2016-06-24T00:00:00",2100,1.143,1.2,1.2,1.2,1.1,1.2,,,,0,0,5,0,0,3700,"PPG",2400300
1,4,0,0,4700,2310048,"2016-06-23T00:00:00",0,1.2,1.2,1.2,1.2,1.2,1.2,,,,0,0,5,0,0,15700,"PPG",0
1,1,0,0,1500,2310048,"2016-06-22T00:00:00",1000,1.2,1.3,1.2,1.2,1.2,1.2,,,,0,0,11,0,0,42600,"PPG",1200000
1,5,0,0,6600,2310048,"2016-06-21T00:00:00",100,1.3,1.2,1.3,1.3,1.3,1.3,,,,0,0,6,0,0,30900,"PPG",130000
1,16,0,0,23400,2310048,"2016-06-20T00:00:00",15000,1.2,1.2,1.2,1.2,1.2,1.2,,,,0,0,5,0,0,27900,"PPG",18000000
1,5,0,0,17700,2310048,"2016-06-17T00:00:00",12700,1.2,1.3,1.2,1.2,1.2,1.2,,,,0,0,10,0,0,43200,"PPG",15240000
1,2,0,0,14000,2310048,"2016-06-16T00:00:00",0,1.3,1.4,1.3,1.3,1.3,1.3,,,,0,0,10,0,0,33300,"PPG",0
1,6,0,0,18900,2310048,"2016-06-15T00:00:00",3100,1.303225806451613,1.4,1.4,1.4,1.3,1.3,,,,0,0,10,0,0,23000,"PPG",4040000
1,7,0,0,25100,2310048,"2016-06-14T00:00:00",3300,1.303,1.3,1.4,1.4,1.3,1.3,,,,0,0,9,0,0,18200,"PPG",4299900
1,4,0,0,26000,2310048,"2016-06-13T00:00:00",13000,1.3,1.3,1.3,1.3,1.3,1.3,,,,0,0,8,0,0,29400,"PPG",16900000
1,4,0,0,21900,2310048,"2016-06-10T00:00:00",5000,1.25,1.4,1.3,1.3,1.2,1.2,,,,0,0,13,0,0,24000,"PPG",6250000
1,2,0,0,12000,2310048,"2016-06-09T00:00:00",0,1.4,1.4,1.4,1.4,1.4,1.4,,,,0,0,10,0,0,18400,"PPG",0
1,4,0,0,13500,2310048,"2016-06-08T00:00:00",300,1.4,1.4,1.4,1.4,1.4,1.4,,,,0,0,10,0,0,38500,"PPG",420000
1,3,0,0,10200,2310048,"2016-06-07T00:00:00",100,1.4,1.3,1.4,1.4,1.4,1.4,,,,0,0,7,0,0,37000,"PPG",140000
1,3,0,0,12000,2310048,"2016-06-06T00:00:00",0,1.3,1.3,1.3,1.3,1.3,1.3,,,,0,0,7,0,0,28500,"PPG",0
1,5,0,0,27800,2310048,"2016-06-03T00:00:00",5800,1.3,1.3,1.3,1.3,1.3,1.3,,,,0,0,8,0,0,21400,"PPG",7540000
1,4,0,0,6200,2310048,"2016-06-02T00:00:00",0,1.3,1.3,1.3,1.3,1.3,1.3,,,,0,0,8,0,0,19000,"PPG",0
1,7,0,0,24000,2310048,"2016-06-01T00:00:00",8800,1.3,1.3,1.3,1.3,1.3,1.3,,,,0,0,10,0,0,20300,"PPG",11440000
1,5,0,0,16100,2310048,"2016-05-31T00:00:00",1000,1.3,1.3,1.3,1.3,1.3,1.3,,,,0,0,4,0,0,9200,"PPG",1300000
1,5,0,0,19100,2310048,"2016-05-30T00:00:00",2100,1.3,1.4,1.3,1.3,1.3,1.3,,,,0,0,13,0,0,37200,"PPG",2730000
1,6,0,0,20200,2310048,"2016-05-27T00:00:00",100,1.4,1.3,1.4,1.4,1.4,1.4,,,,0,0,3,0,0,28000,"PPG",140000
1,5,0,0,23800,2310048,"2016-05-26T00:00:00",0,1.3,1.4,1.3,1.3,1.3,1.3,,,,0,0,5,0,0,28300,"PPG",0
1,8,0,0,18300,2310048,"2016-05-25T00:00:00",700,1.3285714285714287,1.4,1.4,1.4,1.3,1.4,,,,0,0,7,0,0,35500,"PPG",930000.0000000001
1,4,0,0,22900,2310048,"2016-05-24T00:00:00",0,1.4,1.4,1.4,1.4,1.4,1.4,,,,0,0,8,0,0,33800,"PPG",0
1,6,0,0,23700,2310048,"2016-05-23T00:00:00",200,1.35,1.3,1.4,1.4,1.3,1.3,,,,0,0,5,0,0,35800,"PPG",270000
1,3,0,0,14200,2310048,"2016-05-20T00:00:00",8200,1.339,1.5,1.3,1.4,1.3,1.4,,,,0,0,10,0,0,41800,"PPG",10979800
1,6,0,0,18400,2310048,"2016-05-19T00:00:00",7200,1.402777777777778,1.5,1.5,1.5,1.4,1.4,,,,0,0,11,0,0,47000,"PPG",10100000
1,4,0,0,15300,2310048,"2016-05-18T00:00:00",100,1.5,1.4,1.5,1.5,1.5,1.5,,,,0,0,7,0,0,41000,"PPG",150000
1,11,0,0,33200,2310048,"2016-05-17T00:00:00",16900,1.4,1.4,1.4,1.4,1.4,1.4,,,,0,0,5,0,0,24200,"PPG",23660000
1,8,0,0,54500,2310048,"2016-05-16T00:00:00",32000,1.4,1.4,1.4,1.4,1.4,1.4,,,,1540000,1100,8,0,0,50000,"PPG",46340000
1,8,0,0,34500,2310048,"2016-05-13T00:00:00",2100,1.448,1.4,1.4,1.5,1.4,1.5,,,,0,0,10,0,0,18100,"PPG",3040800
1,7,0,0,36100,2310048,"2016-05-12T00:00:00",5100,1.4392156862745098,1.4,1.4,1.5,1.4,1.4,,,,0,0,12,0,0,47800,"PPG",7340000
1,6,0,0,30800,2309548,"2016-05-11T00:00:00",5800,1.4,1.4,1.4,1.4,1.4,1.4,,,,0,0,14,0,0,29100,"PPG",8120000
1,7,0,0,20800,2309548,"2016-05-10T00:00:00",11100,1.4,1.4,1.4,1.4,1.4,1.4,,,,0,0,9,0,0,60800,"PPG",15540000
1,12,0,0,54500,2309548,"2016-05-09T00:00:00",24000,1.367,1.3,1.4,1.4,1.3,1.3,,,,0,0,9,500,700000,24400,"PPG",32808000
1,15,0,0,25300,2309548,"2016-05-06T00:00:00",17600,1.3,1.3,1.3,1.3,1.3,1.3,,,,0,0,5,0,0,21200,"PPG",22880000
1,7,0,0,10000,2307748,"2016-05-05T00:00:00",2000,1.3,1.4,1.3,1.3,1.3,1.3,,,,0,0,9,0,0,9200,"PPG",2600000
1,7,0,0,11000,2307748,"2016-05-04T00:00:00",0,1.4,1.4,1.4,1.4,1.4,1.4,,,,0,0,7,0,0,19600,"PPG",0
1,12,12000,16800000,39900,2307748,"2016-04-29T00:00:00",16000,1.38875,1.3,1.4,1.4,1.3,1.3,,,,16800000,12000,12,13800,19320000,17500,"PPG",39020000
1,13,0,0,32700,2307648,"2016-04-28T00:00:00",7100,1.3,1.3,1.3,1.3,1.3,1.3,,,,0,0,15,0,0,31000,"PPG",9230000
1,8,0,0,6100,2307648,"2016-04-27T00:00:00",300,1.3666666666666667,1.4,1.3,1.4,1.3,1.4,,,,0,0,11,0,0,26600,"PPG",410000
1,13,0,0,20300,2307548,"2016-04-26T00:00:00",3300,1.3696969696969696,1.4,1.4,1.5,1.3,1.5,,,,0,0,13,100,150000,56200,"PPG",4520000
1,14,0,0,12100,2307548,"2016-04-25T00:00:00",1700,1.376,1.4,1.4,1.4,1.3,1.3,,,,0,0,11,0,0,16400,"PPG",2339200
1,11,0,0,11000,2307548,"2016-04-22T00:00:00",2100,1.4047619047619049,1.4,1.4,1.5,1.4,1.5,,,,0,0,9,100,150000,21300,"PPG",2950000
1,22,0,0,25900,2307548,"2016-04-21T00:00:00",7010,1.3757489300998573,1.4,1.4,1.4,1.3,1.3,,,,0,0,14,0,0,36600,"PPG",9644000
1,16,0,0,12700,2302548,"2016-04-20T00:00:00",1800,1.4,1.4,1.4,1.4,1.4,1.4,,,,0,0,13,0,0,36700,"PPG",2520000
1,11,0,0,30500,2302548,"2016-04-19T00:00:00",20500,1.4,1.4,1.4,1.4,1.4,1.4,,,,0,0,20,0,0,62400,"PPG",28700000
1,20,0,0,93000,2302548,"2016-04-15T00:00:00",37900,1.359,1.3,1.4,1.4,1.3,1.3,,,,0,0,12,5000,7000000,37900,"PPG",51506100
1,9,0,0,24900,2302548,"2016-04-14T00:00:00",4010,1.293,1.4,1.3,1.3,1.2,1.2,,,,0,0,8,0,0,28800,"PPG",5184930
1,26,0,0,42100,2287648,"2016-04-13T00:00:00",24300,1.3,1.5,1.4,1.4,1.3,1.3,,,,0,0,16,0,0,94700,"PPG",31590000
1,18,0,0,44500,2287648,"2016-04-12T00:00:00",31100,1.436,1.6,1.5,1.5,1.3,1.5,,,,0,0,22,0,0,105600,"PPG",44659600
1,21,0,0,72700,2287648,"2016-04-11T00:00:00",46500,1.5017204301075269,1.4,1.6,1.6,1.4,1.4,,,,0,0,11,14900,22350000,81200,"PPG",69830000
1,6,0,0,55000,2287648,"2016-04-08T00:00:00",26000,1.404,1.5,1.5,1.5,1.4,1.4,,,,0,0,17,0,0,94700,"PPG",36504000
1,27,0,0,114900,2287648,"2016-04-07T00:00:00",26800,1.462,1.5,1.5,1.5,1.4,1.4,,,,0,0,9,0,0,97200,"PPG",39181600
1,28,0,0,56900,2287648,"2016-04-06T00:00:00",15300,1.397,1.5,1.5,1.5,1.3,1.3,,,,0,0,14,0,0,104700,"PPG",21374100
1,17,0,0,47400,2275448,"2016-04-05T00:00:00",47300,1.516490486257928,1.7,1.5,1.8,1.5,1.8,,,,0,0,32,0,0,119600,"PPG",71730000
1,8,0,0,24900,2258448,"2016-04-04T00:00:00",24900,1.7228915662650601,2,1.7,1.9,1.7,1.9,,,,0,0,29,0,0,140300,"PPG",42900000
1,35,0,0,119900,2248448,"2016-04-01T00:00:00",117600,1.9796768707482992,1.8,2,2,1.9,2,,,,0,0,41,12200,24200000,125500,"PPG",232810000
1,30,5000,9000000,144400,2241348,"2016-03-31T00:00:00",99200,1.793,1.7,1.8,1.8,1.7,1.7,,,,0,0,15,17000,30600000,99200,"PPG",177865600
1,43,0,0,104200,2246348,"2016-03-30T00:00:00",73300,1.642837653478854,1.6,1.7,1.7,1.6,1.6,,,,0,0,15,10000,16400000,73300,"PPG",120420000
1,42,20000,28000000,155100,2216748,"2016-03-29T00:00:00",64010,1.533,1.4,1.6,1.6,1.4,1.5,,,,28000000,20000,27,27100,38650000,74200,"PPG",126127330
1,23,0,0,167500,2194748,"2016-03-28T00:00:00",7500,1.4,1.3,1.4,1.4,1.4,1.4,,,,0,0,4,0,0,7500,"PPG",10500000
1,23,0,0,129300,2194748,"2016-03-25T00:00:00",31300,1.3210862619808306,1.3,1.3,1.4,1.3,1.3,,,,0,0,5,29600,38970000,83400,"PPG",41350000
1,38,0,0,161400,2183748,"2016-03-24T00:00:00",108600,1.3,1.3,1.3,1.3,1.3,1.3,,,,0,0,9,22000,28600000,127300,"PPG",141180000
1,13,0,0,61000,2144748,"2016-03-23T00:00:00",50800,1.3,1.4,1.3,1.3,1.3,1.3,,,,0,0,5,0,0,66000,"PPG",66040000
1,16,0,0,44400,2137748,"2016-03-22T00:00:00",13120,1.369512195121951,1.3,1.4,1.4,1.3,1.3,,,,0,0,5,11000,15000000,13100,"PPG",17968000
1,10,0,0,63100,2137648,"2016-03-21T00:00:00",52800,1.344,1.3,1.3,1.4,1.3,1.3,,,,0,0,7,39000,52900000,53800,"PPG",70963200
1,14,0,0,35100,2136648,"2016-03-18T00:00:00",7000,1.3142857142857143,1.3,1.4,1.4,1.3,1.3,,,,0,0,2,7000,9200000,7000,"PPG",9200000
1,9,0,0,6200,2123148,"2016-03-17T00:00:00",4100,1.3048780487804879,1.5,1.3,1.5,1.3,1.5,,,,0,0,6,100,150000,30300,"PPG",5350000
1,5,0,0,7000,2109848,"2016-03-16T00:00:00",1000,1.5,1.5,1.5,1.5,1.5,1.5,,,,0,0,3,1000,1500000,20500,"PPG",1500000
1,4,0,0,16500,2109848,"2016-03-15T00:00:00",13500,1.5,1.5,1.5,1.5,1.5,1.5,,,,0,0,4,13500,20250000,39000,"PPG",20250000
1,11,0,0,24100,2109848,"2016-03-14T00:00:00",15110,1.5,1.5,1.5,1.5,1.5,1.5,,,,0,0,6,13300,19950000,30100,"PPG",22665000
1,2,0,0,1200,2104848,"2016-03-11T00:00:00",100,1.5,1.6,1.5,1.5,1.5,1.5,,,,0,0,5,0,0,15800,"PPG",150000
1,2,0,0,3300,2091848,"2016-03-10T00:00:00",0,1.6,1.6,1.6,1.6,1.6,1.6,,,,0,0,3,0,0,13700,"PPG",0
1,7,0,0,31000,2091848,"2016-03-09T00:00:00",5000,1.6,1.6,1.6,1.6,1.6,1.6,,,,0,0,2,5000,8000000,8000,"PPG",8000000
1,9,0,0,137300,2091848,"2016-03-08T00:00:00",136620,1.6001463914507392,1.8,1.6,1.8,1.6,1.6,,,,0,0,11,13000,20800000,138500,"PPG",218612000
1,3,0,0,1200,2091848,"2016-03-07T00:00:00",0,1.8,1.8,1.8,1.8,1.8,1.8,,,,0,0,4,0,0,1400,"PPG",0
1,1,0,0,100,2091848,"2016-03-04T00:00:00",0,1.8,1.8,1.8,1.8,1.8,1.8,,,,0,0,2,0,0,1000,"PPG",0
1,2,0,0,11000,2091848,"2016-03-03T00:00:00",4600,1.8,2,1.8,1.8,1.8,1.8,,,,0,0,9,0,0,8700,"PPG",8280000
1,3,0,0,7100,2091848,"2016-03-02T00:00:00",0,2,2,2,2,2,2,,,,0,0,6,0,0,2100,"PPG",0
1,2,0,0,2100,2091848,"2016-03-01T00:00:00",0,2,2,2,2,2,2,,,,0,0,4,0,0,1300,"PPG",0
1,1,0,0,100,2091848,"2016-02-29T00:00:00",0,2,2,2,2,2,2,,,,0,0,6,0,0,6900,"PPG",0
1,1,0,0,100,2091848,"2016-02-26T00:00:00",10,2,2,2,2,2,2,,,,0,0,5,0,0,4400,"PPG",20000
1,1,0,0,100,2091848,"2016-02-25T00:00:00",0,2,2,2,2,2,2,,,,0,0,7,0,0,7300,"PPG",0
1,2,0,0,200,2091848,"2016-02-24T00:00:00",100,2,1.9,2,2,2,2,,,,0,0,4,0,0,3900,"PPG",200000
1,0,0,0,0,2091848,"2016-02-23T00:00:00",0,1.9,1.9,1.9,1.9,1.9,1.9,,,,0,0,4,0,0,3600,"PPG",0
1,0,0,0,0,2091848,"2016-02-22T00:00:00",0,1.9,1.9,1.9,1.9,1.9,1.9,,,,0,0,8,0,0,6000,"PPG",0
1,1,0,0,100,2091848,"2016-02-19T00:00:00",0,1.9,1.9,1.9,1.9,1.9,1.9,,,,0,0,2,0,0,400,"PPG",0
1,1,0,0,100,2091848,"2016-02-18T00:00:00",100,1.9,1.7,1.9,1.9,1.9,1.9,,,,0,0,1,0,0,300,"PPG",190000
1,0,0,0,0,2091848,"2016-02-17T00:00:00",0,1.7,1.7,1.7,1.7,1.7,1.7,,,,0,0,2,0,0,600,"PPG",0
1,3,0,0,800,2091848,"2016-02-16T00:00:00",100,1.7,1.5,1.7,1.7,1.7,1.7,,,,0,0,1,0,0,100,"PPG",170000
1,0,0,0,0,2091848,"2016-02-15T00:00:00",0,1.5,1.5,1.5,1.5,1.5,1.5,,,,0,0,0,0,0,0,"PPG",0
1,1,0,0,1000,2091848,"2016-02-05T00:00:00",0,1.5,1.5,1.5,1.5,1.5,1.5,,,,0,0,0,0,0,0,"PPG",0
1,4,0,0,1600,2091848,"2016-02-04T00:00:00",600,1.5,1.5,1.5,1.5,1.5,1.5,,,,0,0,1,0,0,600,"PPG",900000
1,2,0,0,1300,2091848,"2016-02-03T00:00:00",0,1.5,1.5,1.5,1.5,1.5,1.5,,,,0,0,1,0,0,4200,"PPG",0
1,1,0,0,1000,2091848,"2016-02-02T00:00:00",0,1.5,1.5,1.5,1.5,1.5,1.5,,,,0,0,0,0,0,0,"PPG",0
1,1,0,0,1000,2091848,"2016-02-01T00:00:00",1000,1.5,1.5,1.5,1.5,1.5,1.5,,,,0,0,1,0,0,1600,"PPG",1500000
1,3,0,0,1300,2091848,"2016-01-29T00:00:00",300,1.5,1.6,1.5,1.5,1.5,1.5,,,,0,0,4,0,0,4700,"PPG",450000
1,1,0,0,1000,2091848,"2016-01-28T00:00:00",0,1.6,1.6,1.6,1.6,1.6,1.6,,,,0,0,2,0,0,4400,"PPG",0
1,1,0,0,1000,2091848,"2016-01-27T00:00:00",0,1.6,1.6,1.6,1.6,1.6,1.6,,,,0,0,2,0,0,4400,"PPG",0
1,1,0,0,300,2091848,"2016-01-26T00:00:00",0,1.6,1.6,1.6,1.6,1.6,1.6,,,,0,0,1,0,0,4200,"PPG",0
1,10,0,0,4700,2091848,"2016-01-25T00:00:00",4700,1.6170212765957446,1.8,1.6,1.8,1.6,1.8,,,,0,0,5,0,0,8900,"PPG",7600000
1,2,0,0,400,2091848,"2016-01-22T00:00:00",400,1.8,1.8,1.7,2.1,1.7,2.1,,,,0,0,5,0,0,12600,"PPG",720000
1,3,0,0,800,2091848,"2016-01-21T00:00:00",800,1.925,2.1,1.8,2.4,1.8,2.4,,,,0,0,7,0,0,16300,"PPG",1540000
1,2,0,0,200,2091848,"2016-01-20T00:00:00",200,2.1,2.3,2.1,2.1,2.1,2.1,,,,0,0,7,0,0,11200,"PPG",420000
1,1,0,0,500,2091848,"2016-01-19T00:00:00",500,2.3,2.6,2.3,2.3,2.3,2.3,,,,0,0,7,0,0,25600,"PPG",1150000
1,1,0,0,100,2091848,"2016-01-18T00:00:00",100,2.6,2.4,2.6,2.6,2.6,2.6,,,,0,0,5,0,0,12100,"PPG",260000
1,2,0,0,200,2091848,"2016-01-15T00:00:00",100,2.4,2.1,2.4,2.4,2.4,2.4,,,,0,0,3,0,0,4600,"PPG",240000
1,3,0,0,400,2091848,"2016-01-14T00:00:00",400,2.225,2.4,2.1,2.6,2.1,2.6,,,,0,0,5,0,0,8600,"PPG",890000
1,1,0,0,200,2091848,"2016-01-13T00:00:00",0,2.4,2.4,2.4,2.4,2.4,2.4,,,,0,0,3,0,0,7500,"PPG",0
1,1,0,0,500,2091848,"2016-01-12T00:00:00",500,2.4,2.8,2.4,2.4,2.4,2.4,,,,0,0,9,0,0,38900,"PPG",1200000
1,0,0,0,0,2091848,"2016-01-11T00:00:00",0,2.8,2.8,2.8,2.8,2.8,2.8,,,,0,0,8,0,0,22800,"PPG",0
1,0,0,0,0,2091848,"2016-01-08T00:00:00",0,2.8,2.8,2.8,2.8,2.8,2.8,,,,0,0,5,0,0,10600,"PPG",0
1,1,0,0,100,2091848,"2016-01-07T00:00:00",100,2.8,2.9,2.8,2.8,2.8,2.8,,,,0,0,5,0,0,13400,"PPG",280000
1,0,0,0,0,2091848,"2016-01-06T00:00:00",0,2.9,2.7,2.9,2.9,2.9,2.9,,,,0,0,5,0,0,10600,"PPG",0
1,2,0,0,200,2091848,"2016-01-05T00:00:00",200,2.8,2.8,2.7,3,2.7,3,,,,0,0,9,0,0,38500,"PPG",560000
1,0,0,0,0,2091848,"2016-01-04T00:00:00",0,2.8,2.8,2.8,2.8,2.8,2.8,,,,0,0,8,0,0,33200,"PPG",0
1,2,0,0,300,2091848,"2015-12-31T00:00:00",100,2.8,2.6,2.8,2.8,2.8,2.8,,,,0,0,6,0,0,32900,"PPG",280000
1,1,0,0,100,2091848,"2015-12-30T00:00:00",100,2.6,2.8,2.6,2.6,2.6,2.6,,,,0,0,8,0,0,10500,"PPG",260000
1,1,0,0,200,2091848,"2015-12-29T00:00:00",200,2.8,2.9,2.8,3.6,2.8,2.8,,,,762120000,211700,8,0,0,19400,"PPG",762680000
1,5,0,0,6600,2091848,"2015-12-28T00:00:00",6600,3.203030303030303,3.3,2.9,3.5,2.9,3,,,,0,0,18,0,0,34400,"PPG",21140000
1,1,0,0,100,2091848,"2015-12-25T00:00:00",100,3.3,3,3.3,4.3,3.3,3.3,,,,3087400000,718000,12,0,0,40100,"PPG",3087730000
1,2,0,0,6000,2091848,"2015-12-24T00:00:00",6000,3.75,3.1,3,3.9,3,3.9,,,,825630000,211700,11,0,0,67400,"PPG",848130000
1,3,0,0,10000,2091848,"2015-12-23T00:00:00",9000,3.366,3,3.1,3.4,3,3.4,,,,1244400000,366000,12,0,0,40200,"PPG",1274694000
1,4,0,0,10000,2091848,"2015-12-22T00:00:00",10000,3.04,2.7,3,3.1,2.8,3.1,,,,0,0,6,0,0,24000,"PPG",30400000
1,4,0,0,11500,2091848,"2015-12-21T00:00:00",11500,2.67,2.4,2.7,2.7,2.6,2.7,,,,0,0,8,0,0,26000,"PPG",30705000
1,8,100,200000,20100,2091848,"2015-12-18T00:00:00",19500,2.37,2.3,2.6,2.6,2,2,,,,0,0,6,0,0,19500,"PPG",46215000
1,5,0,0,6400,2091948,"2015-12-17T00:00:00",6400,2.3,2.6,2.3,2.3,2.3,2.3,,,,0,0,10,0,0,35000,"PPG",14720000
1,0,0,0,0,2091948,"2015-12-16T00:00:00",0,2.6,2.5,2.6,2.6,2.6,2.6,,,,343070000,118300,6,0,0,12500,"PPG",343070000
1,3,0,0,3000,2091948,"2015-12-15T00:00:00",3000,2.55,2.5,2.5,2.6,2.5,2.5,,,,0,0,7,0,0,18600,"PPG",7650000
1,0,0,0,0,2091948,"2015-12-14T00:00:00",0,2.5,2.5,2.5,2.5,2.5,2.5,,,,0,0,7,0,0,17800,"PPG",0
1,3,0,0,200,2091948,"2015-12-11T00:00:00",200,2.5,2.5,2.5,2.5,2.5,2.5,,,,0,0,10,0,0,34700,"PPG",500000
1,2,0,0,400,2091948,"2015-12-10T00:00:00",100,2.5,2.6,2.5,2.5,2.5,2.5,,,,0,0,8,0,0,27400,"PPG",250000
1,4,0,0,5900,2091948,"2015-12-09T00:00:00",5900,2.6,2.5,2.6,2.6,2.6,2.6,,,,105000,50,7,0,0,28200,"PPG",15445000
1,3,0,0,7500,2091948,"2015-12-08T00:00:00",7000,2.371,2.3,2.5,2.5,2.2,2.2,,,,0,0,8,0,0,32900,"PPG",16597000
1,4,0,0,5100,2091948,"2015-12-07T00:00:00",4500,2.3,2,2.3,2.3,2.3,2.3,,,,0,0,6,0,0,12700,"PPG",10350000
1,0,0,0,0,2091948,"2015-12-04T00:00:00",0,2,2,2,2,2,2,,,,0,0,8,0,0,10900,"PPG",0
1,2,0,0,3000,2091948,"2015-12-03T00:00:00",0,2,2,2,2,2,2,,,,0,0,6,0,0,10700,"PPG",0
1,1,0,0,7500,2091948,"2015-12-02T00:00:00",7500,2,1.8,2,2,2,2,,,,0,0,5,0,0,7500,"PPG",15000000
1,3,0,0,3100,2091948,"2015-12-01T00:00:00",2100,1.8,1.9,1.8,1.8,1.8,1.8,,,,0,0,8,0,0,13700,"PPG",3780000
1,7,0,0,14800,2091948,"2015-11-30T00:00:00",13800,1.9,1.9,1.9,1.9,1.9,1.9,,,,0,0,13,0,0,36300,"PPG",26220000
1,4,0,0,6200,2091948,"2015-11-27T00:00:00",5300,1.9,1.7,1.9,1.9,1.8,1.8,,,,0,0,4,0,0,8900,"PPG",10070000
1,2,0,0,5500,2091948,"2015-11-26T00:00:00",5500,1.696,1.5,1.7,1.7,1.6,1.6,,,,0,0,3,0,0,5500,"PPG",9328000
1,3,0,0,3000,2091948,"2015-11-25T00:00:00",1000,1.48,1.4,1.5,1.5,1.4,1.4,,,,0,0,3,0,0,1100,"PPG",1480000
1,2,0,0,11900,2091948,"2015-11-24T00:00:00",9900,1.4,1.3,1.4,1.4,1.4,1.4,,,,0,0,5,0,0,9900,"PPG",13860000
1,2,0,0,5300,2091948,"2015-11-23T00:00:00",0,1.3,1.3,1.3,1.3,1.3,1.3,,,,0,0,4,0,0,4700,"PPG",0
1,4,0,0,7900,2091948,"2015-11-20T00:00:00",0,1.3,1.3,1.3,1.3,1.3,1.3,,,,0,0,3,0,0,3900,"PPG",0
1,5,0,0,8600,2091948,"2015-11-19T00:00:00",0,1.3,1.3,1.3,1.3,1.3,1.3,,,,0,0,3,0,0,4700,"PPG",0
1,4,0,0,21000,2091948,"2015-11-18T00:00:00",15300,1.299,1.3,1.3,1.3,1.2,1.3,,,,0,0,15,0,0,27500,"PPG",19874700
1,4,0,0,15900,2091948,"2015-11-17T00:00:00",5000,1.3,1.4,1.3,1.3,1.3,1.3,,,,0,0,11,0,0,11500,"PPG",6500000
1,3,0,0,2200,2091948,"2015-11-16T00:00:00",100,1.4,1.3,1.4,1.4,1.4,1.4,,,,0,0,4,0,0,7500,"PPG",140000
1,12,0,0,56000,2091948,"2015-11-13T00:00:00",20800,1.3,1.2,1.3,1.3,1.3,1.3,,,,0,0,5,0,0,20800,"PPG",27040000
1,11,500,600000,87000,2091948,"2015-11-12T00:00:00",44000,1.2,1.1,1.2,1.2,1.2,1.2,,,,0,0,3,0,0,44000,"PPG",52800000
1,4,0,0,6500,2092448,"2015-11-11T00:00:00",0,1.1,1.1,1.1,1.1,1.1,1.1,,,,0,0,0,0,0,0,"PPG",0
1,9,0,0,42600,2092448,"2015-11-10T00:00:00",0,1.1,1.1,1.1,1.1,1.1,1.1,,,,0,0,1,0,0,100,"PPG",0
1,13,1000,1100000,78900,2092448,"2015-11-09T00:00:00",78900,1.1,1.2,1.1,1.1,1.1,1.1,,,,0,0,6,0,0,81000,"PPG",86790000
1,8,0,0,6600,2093448,"2015-11-06T00:00:00",6600,1.206,1.3,1.2,1.3,1.2,1.3,,,,0,0,4,0,0,17000,"PPG",7959600
1,5,0,0,12700,2093448,"2015-11-05T00:00:00",5000,1.3,1.3,1.3,1.3,1.3,1.3,,,,0,0,3,0,0,25000,"PPG",6500000
1,3,0,0,5000,2093448,"2015-11-04T00:00:00",200,1.3,1.4,1.3,1.3,1.3,1.3,,,,0,0,4,0,0,6300,"PPG",260000
1,3,0,0,7000,2093448,"2015-11-03T00:00:00",0,1.4,1.4,1.4,1.4,1.4,1.4,,,,0,0,4,0,0,6000,"PPG",0
1,1,0,0,4000,2093448,"2015-11-02T00:00:00",0,1.4,1.4,1.4,1.4,1.4,1.4,,,,0,0,2,0,0,8500,"PPG",0
1,3,0,0,6600,2093448,"2015-10-30T00:00:00",0,1.4,1.4,1.4,1.4,1.4,1.4,,,,0,0,1,0,0,6000,"PPG",0
1,10,0,0,14500,2093448,"2015-10-29T00:00:00",6400,1.4,1.4,1.4,1.4,1.4,1.4,,,,0,0,3,0,0,18600,"PPG",8960000
1,10,0,0,35500,2093448,"2015-10-28T00:00:00",24000,1.4,1.4,1.4,1.4,1.4,1.4,,,,0,0,4,0,0,24000,"PPG",33600000
1,4,500,700000,5000,2093448,"2015-10-27T00:00:00",1000,1.4,1.5,1.4,1.4,1.4,1.4,,,,0,0,3,0,0,12500,"PPG",1400000
1,3,0,0,6200,2093948,"2015-10-26T00:00:00",200,1.5,1.5,1.5,1.5,1.5,1.5,,,,0,0,1,0,0,5000,"PPG",300000
1,5,0,0,8900,2093948,"2015-10-23T00:00:00",4000,1.5,1.6,1.5,1.5,1.5,1.5,,,,0,0,3,0,0,6000,"PPG",6000000
1,1,0,0,6200,2093948,"2015-10-22T00:00:00",0,1.6,1.6,1.6,1.6,1.6,1.6,,,,0,0,1,0,0,2000,"PPG",0
1,2,500,800000,800,2093948,"2015-10-21T00:00:00",800,1.6,1.8,1.6,1.6,1.6,1.6,,,,0,0,2,0,0,3000,"PPG",1280000
1,0,0,0,0,2094448,"2015-10-20T00:00:00",0,1.8,1.8,1.8,1.8,1.8,1.8,,,,0,0,2,0,0,8300,"PPG",0
1,0,0,0,0,2094448,"2015-10-19T00:00:00",0,1.8,1.8,1.8,1.8,1.8,1.8,,,,0,0,2,0,0,8300,"PPG",0
1,2,0,0,500,2094448,"2015-10-16T00:00:00",500,1.8,2.1,1.8,1.9,1.8,1.9,,,,0,0,4,0,0,16000,"PPG",900000
1,2,0,0,200,2094448,"2015-10-15T00:00:00",200,2.1,2.4,2.1,2.1,2.1,2.1,,,,0,0,5,0,0,25000,"PPG",420000
1,0,0,0,0,2094448,"2015-10-14T00:00:00",0,2.4,2.4,2.4,2.4,2.4,2.4,,,,0,0,1,0,0,5000,"PPG",0
1,0,0,0,0,2094448,"2015-10-13T00:00:00",0,2.4,2.4,2.4,2.4,2.4,2.4,,,,0,0,2,0,0,22900,"PPG",0
1,0,0,0,0,2094448,"2015-10-12T00:00:00",0,2.4,2.4,2.4,2.4,2.4,2.4,,,,0,0,1,0,0,3800,"PPG",0
1,3,0,0,400,2094448,"2015-10-09T00:00:00",100,2.4,2.1,2.4,2.4,2.4,2.4,,,,0,0,2,0,0,200,"PPG",240000
1,2,0,0,400,2094448,"2015-10-08T00:00:00",0,2.1,2.1,2.1,2.1,2.1,2.1,,,,0,0,3,0,0,4900,"PPG",0
1,0,0,0,0,2094448,"2015-10-07T00:00:00",0,2.1,2.3,2.1,2.1,2.1,2.1,,,,117000,65,0,0,0,0,"PPG",117000
1,3,0,0,1400,2094448,"2015-10-06T00:00:00",900,2.133,2,2.3,2.3,2,2,,,,110500,65,4,0,0,4700,"PPG",2030200
1,1,0,0,200,2094448,"2015-10-05T00:00:00",200,2,1.8,2,2,2,2,,,,0,0,1,0,0,200,"PPG",400000
1,0,0,0,0,2094448,"2015-10-02T00:00:00",0,1.8,1.8,1.8,1.8,1.8,1.8,,,,0,0,0,0,0,0,"PPG",0
1,1,0,0,1000,2094448,"2015-10-01T00:00:00",0,1.8,1.8,1.8,1.8,1.8,1.8,,,,0,0,1,0,0,200,"PPG",0
1,0,0,0,0,2094448,"2015-09-30T00:00:00",0,1.8,1.8,1.8,1.8,1.8,1.8,,,,0,0,0,0,0,0,"PPG",0
1,1,0,0,500,2094448,"2015-09-29T00:00:00",0,1.8,1.8,1.8,1.8,1.8,1.8,,,,0,0,1,0,0,200,"PPG",0
1,1,0,0,800,2094448,"2015-09-28T00:00:00",0,1.8,1.8,1.8,1.8,1.8,1.8,,,,0,0,2,0,0,600,"PPG",0
1,2,0,0,1100,2094448,"2015-09-25T00:00:00",300,1.8,1.8,1.8,1.8,1.8,1.8,,,,0,0,1,0,0,300,"PPG",540000
1,1,0,0,500,2094448,"2015-09-24T00:00:00",0,1.8,1.8,1.8,1.8,1.8,1.8,,,,0,0,1,0,0,100,"PPG",0
1,2,0,0,1000,2094448,"2015-09-23T00:00:00",200,1.8,1.8,1.8,1.8,1.8,1.8,,,,0,0,2,0,0,300,"PPG",360000
1,1,0,0,800,2094448,"2015-09-22T00:00:00",800,1.8,1.9,1.8,1.8,1.8,1.8,,,,0,0,3,0,0,5300,"PPG",1440000
1,1,0,0,1000,2094448,"2015-09-21T00:00:00",100,1.9,2,1.9,1.9,1.9,1.9,,,,0,0,3,0,0,5900,"PPG",190000
1,2,0,0,200,2094448,"2015-09-18T00:00:00",200,2,2,2,2,2,2,,,,0,0,2,0,0,3500,"PPG",400000
1,1,0,0,100,2094448,"2015-09-17T00:00:00",100,2,2.3,2,2,2,2,,,,0,0,3,0,0,500,"PPG",200000
1,1,0,0,1000,2094448,"2015-09-16T00:00:00",0,2.3,2.3,2.3,2.3,2.3,2.3,,,,0,0,1,0,0,100,"PPG",0
1,2,0,0,1500,2094448,"2015-09-15T00:00:00",0,2.3,2.3,2.3,2.3,2.3,2.3,,,,0,0,0,0,0,0,"PPG",0
1,1,0,0,1000,2094448,"2015-09-14T00:00:00",0,2.3,2.3,2.3,2.3,2.3,2.3,,,,0,0,1,0,0,5000,"PPG",0
1,2,0,0,1500,2094448,"2015-09-11T00:00:00",0,2.3,2.3,2.3,2.3,2.3,2.3,,,,0,0,2,0,0,1700,"PPG",0
1,1,0,0,1000,2094448,"2015-09-10T00:00:00",0,2.3,2.3,2.3,2.3,2.3,2.3,,,,0,0,2,0,0,2700,"PPG",0
1,1,0,0,1000,2094448,"2015-09-09T00:00:00",0,2.3,2.3,2.3,2.3,2.3,2.3,,,,0,0,0,0,0,0,"PPG",0
1,1,0,0,800,2094448,"2015-09-08T00:00:00",0,2.3,2.3,2.3,2.3,2.3,2.3,,,,0,0,0,0,0,0,"PPG",0
1,1,0,0,1000,2094448,"2015-09-07T00:00:00",0,2.3,2.3,2.3,2.3,2.3,2.3,,,,0,0,0,0,0,0,"PPG",0
1,2,0,0,700,2094448,"2015-09-04T00:00:00",200,2.3,2,2.3,2.3,2.3,2.3,,,,0,0,1,0,0,200,"PPG",460000
1,0,0,0,0,2094448,"2015-09-03T00:00:00",0,2,2,2,2,2,2,,,,0,0,0,0,0,0,"PPG",0
1,0,0,0,0,2094448,"2015-09-01T00:00:00",0,2,2.3,2,2,2,2,,,,0,0,0,0,0,0,"PPG",0
1,9,0,0,11600,2094448,"2015-08-31T00:00:00",10600,2.045,2,2.3,2.3,2,2.3,,,,0,0,6,0,0,10600,"PPG",21677000
1,3,0,0,4500,2094448,"2015-08-28T00:00:00",4500,1.989,2.1,2,2,1.9,1.9,,,,0,0,5,0,0,6700,"PPG",8950500
1,2,0,0,3200,2094448,"2015-08-27T00:00:00",2200,2.009,1.9,2.1,2.1,2,2,,,,0,0,4,0,0,6200,"PPG",4419800
1,1,0,0,200,2094448,"2015-08-26T00:00:00",200,1.9,1.9,1.9,1.9,1.9,1.9,,,,0,0,1,0,0,2000,"PPG",380000
1,0,0,0,0,2094448,"2015-08-25T00:00:00",0,1.9,1.9,1.9,1.9,1.9,1.9,,,,0,0,1,0,0,2000,"PPG",0
1,4,0,0,6900,2094448,"2015-08-24T00:00:00",6900,1.9,1.8,1.9,1.9,1.9,1.9,,,,0,0,6,0,0,12600,"PPG",13110000
1,2,0,0,2000,2094448,"2015-08-21T00:00:00",100,1.8,1.9,1.8,1.8,1.8,1.8,,,,0,0,1,0,0,100,"PPG",180000
1,0,0,0,0,2094448,"2015-08-20T00:00:00",0,1.9,1.9,1.9,1.9,1.9,1.9,,,,0,0,0,0,0,0,"PPG",0
1,0,0,0,0,2094448,"2015-08-19T00:00:00",0,1.9,1.9,1.9,1.9,1.9,1.9,,,,0,0,0,0,0,0,"PPG",0
1,0,0,0,0,2094448,"2015-08-18T00:00:00",0,1.9,1.9,1.9,1.9,1.9,1.9,,,,0,0,0,0,0,0,"PPG",0
1,0,0,0,0,2094448,"2015-08-17T00:00:00",0,1.9,1.9,1.9,1.9,1.9,1.9,,,,0,0,0,0,0,0,"PPG",0
1,1,0,0,1000,2094448,"2015-08-14T00:00:00",0,1.9,1.9,1.9,1.9,1.9,1.9,,,,0,0,0,0,0,0,"PPG",0
1,2,0,0,2800,2094448,"2015-08-13T00:00:00",0,1.9,1.9,1.9,1.9,1.9,1.9,,,,0,0,1,0,0,2200,"PPG",0
1,2,0,0,2000,2094448,"2015-08-12T00:00:00",0,1.9,1.9,1.9,1.9,1.9,1.9,,,,0,0,0,0,0,0,"PPG",0
1,2,0,0,3000,2094448,"2015-08-11T00:00:00",2000,1.9,1.9,1.9,1.9,1.9,1.9,,,,0,0,3,0,0,4500,"PPG",3800000
1,2,0,0,2000,2094448,"2015-08-10T00:00:00",1200,1.9,2.1,1.9,1.9,1.9,1.9,,,,0,0,2,0,0,3400,"PPG",2280000
1,1,0,0,1000,2094448,"2015-08-07T00:00:00",0,2.1,2.1,2.1,2.1,2.1,2.1,,,,0,0,1,0,0,2200,"PPG",0
1,1,0,0,1000,2094448,"2015-08-06T00:00:00",0,2.1,2.1,2.1,2.1,2.1,2.1,,,,0,0,2,0,0,2400,"PPG",0
1,1,0,0,1000,2094448,"2015-08-05T00:00:00",0,2.1,2.1,2.1,2.1,2.1,2.1,,,,0,0,2,0,0,1600,"PPG",0
1,1,0,0,1000,2094448,"2015-08-04T00:00:00",0,2.1,2.1,2.1,2.1,2.1,2.1,,,,0,0,2,0,0,1900,"PPG",0
1,0,0,0,0,2094448,"2015-08-03T00:00:00",0,2.1,2.1,2.1,2.1,2.1,2.1,,,,0,0,2,0,0,1600,"PPG",0
1,0,0,0,0,2094448,"2015-07-31T00:00:00",0,2.1,2.1,2.1,2.1,2.1,2.1,,,,0,0,1,0,0,1500,"PPG",0
1,1,0,0,1000,2094448,"2015-07-30T00:00:00",0,2.1,2.1,2.1,2.1,2.1,2.1,,,,0,0,1,0,0,200,"PPG",0
1,1,0,0,1000,2094448,"2015-07-29T00:00:00",0,2.1,2.1,2.1,2.1,2.1,2.1,,,,0,0,1,0,0,200,"PPG",0
1,1,0,0,1000,2094448,"2015-07-28T00:00:00",0,2.1,2.1,2.1,2.1,2.1,2.1,,,,0,0,0,0,0,0,"PPG",0
1,1,0,0,1000,2094448,"2015-07-27T00:00:00",0,2.1,2.1,2.1,2.1,2.1,2.1,,,,0,0,0,0,0,0,"PPG",0
1,1,0,0,1000,2094448,"2015-07-24T00:00:00",0,2.1,2.1,2.1,2.1,2.1,2.1,,,,0,0,1,0,0,200,"PPG",0
1,0,0,0,0,2094448,"2015-07-23T00:00:00",0,2.1,2.1,2.1,2.1,2.1,2.1,,,,0,0,1,0,0,200,"PPG",0
1,0,0,0,0,2094448,"2015-07-22T00:00:00",0,2.1,2.1,2.1,2.1,2.1,2.1,,,,0,0,1,0,0,200,"PPG",0
1,0,0,0,0,2094448,"2015-07-21T00:00:00",0,2.1,2.1,2.1,2.1,2.1,2.1,,,,0,0,0,0,0,0,"PPG",0
1,0,0,0,0,2094448,"2015-07-20T00:00:00",0,2.1,2.1,2.1,2.1,2.1,2.1,,,,0,0,0,0,0,0,"PPG",0
1,1,0,0,1000,2094448,"2015-07-17T00:00:00",0,2.1,2.1,2.1,2.1,2.1,2.1,,,,0,0,1,0,0,200,"PPG",0
1,1,0,0,1000,2094448,"2015-07-16T00:00:00",0,2.1,2.1,2.1,2.1,2.1,2.1,,,,0,0,1,0,0,1400,"PPG",0
1,0,0,0,0,2094448,"2015-07-15T00:00:00",0,2.1,2.1,2.1,2.1,2.1,2.1,,,,0,0,4,0,0,2200,"PPG",0
1,0,0,0,0,2094448,"2015-07-14T00:00:00",0,2.1,2.1,2.1,2.1,2.1,2.1,,,,0,0,1,0,0,1400,"PPG",0
1,0,0,0,0,2094448,"2015-07-13T00:00:00",0,2.1,2.1,2.1,2.1,2.1,2.1,,,,0,0,2,0,0,1700,"PPG",0
1,2,0,0,1300,2094448,"2015-07-10T00:00:00",500,2.1,2.1,2.1,2.1,2.1,2.1,,,,0,0,4,0,0,2500,"PPG",1050000
1,2,0,0,1300,2094448,"2015-07-09T00:00:00",0,2.1,2.1,2.1,2.1,2.1,2.1,,,,0,0,2,0,0,200,"PPG",0
1,1,0,0,1000,2094448,"2015-07-08T00:00:00",0,2.1,2.1,2.1,2.1,2.1,2.1,,,,0,0,2,0,0,400,"PPG",0
1,2,0,0,3300,2094448,"2015-07-07T00:00:00",3300,2.1,2.4,2.1,2.1,2.1,2.1,,,,0,0,7,0,0,6100,"PPG",6930000
1,0,0,0,0,2094448,"2015-07-06T00:00:00",0,2.4,2.4,2.4,2.4,2.4,2.4,,,,0,0,3,0,0,300,"PPG",0
1,1,0,0,800,2094448,"2015-07-03T00:00:00",0,2.4,2.4,2.4,2.4,2.4,2.4,,,,0,0,5,0,0,1000,"PPG",0
1,0,0,0,0,2094448,"2015-07-02T00:00:00",0,2.4,2.4,2.4,2.4,2.4,2.4,,,,0,0,4,0,0,5400,"PPG",0
1,0,0,0,0,2094448,"2015-07-01T00:00:00",0,2.4,2.4,2.4,2.4,2.4,2.4,,,,0,0,1,0,0,500,"PPG",0
1,1,0,0,100,2094448,"2015-06-30T00:00:00",100,2.4,2.2,2.4,2.4,2.4,2.4,,,,0,0,3,0,0,4000,"PPG",240000
1,0,0,0,0,2094448,"2015-06-29T00:00:00",0,2.2,2.2,2.2,2.2,2.2,2.2,,,,0,0,2,0,0,3400,"PPG",0
1,1,0,0,300,2094448,"2015-06-26T00:00:00",100,2.2,2.4,2.2,2.2,2.2,2.2,,,,0,0,4,0,0,800,"PPG",220000
1,1,0,0,100,2094448,"2015-06-25T00:00:00",100,2.4,2.5,2.4,2.4,2.4,2.4,,,,0,0,5,0,0,4000,"PPG",240000
1,0,0,0,0,2094448,"2015-06-24T00:00:00",0,2.5,2.5,2.5,2.5,2.5,2.5,,,,0,0,3,0,0,700,"PPG",0
1,0,0,0,0,2094448,"2015-06-23T00:00:00",0,2.5,2.5,2.5,2.5,2.5,2.5,,,,0,0,5,0,0,800,"PPG",0
1,7,0,0,12600,2094448,"2015-06-22T00:00:00",100,2.5,1.8,2.5,2.5,2.5,2.5,,,,0,0,1,0,0,500,"PPG",250000
1,49,1800,3600000,59900,2094448,"2015-05-20T00:00:00",59900,2.023,2.2,2,2.3,2,2,,,,0,0,48,0,0,69900,"PPG",121177700
1,14,0,0,16800,2096248,"2015-05-19T00:00:00",13700,1.937,2,2.2,2.2,1.9,2.2,,,,0,0,7,0,0,13700,"PPG",26536900
1,5,0,0,3600,2096248,"2015-05-18T00:00:00",3000,1.893,1.9,2,2,1.8,1.9,,,,0,0,3,0,0,3000,"PPG",5679000
1,4,0,0,3600,2096248,"2015-05-15T00:00:00",1800,1.763,1.8,1.9,1.9,1.7,1.7,,,,0,0,4,0,0,1800,"PPG",3173400
1,3,0,0,2500,2096248,"2015-05-14T00:00:00",200,1.8,1.7,1.8,1.8,1.8,1.8,,,,0,0,1,0,0,200,"PPG",360000
1,1,0,0,500,2096248,"2015-05-13T00:00:00",0,1.7,1.7,1.7,1.7,1.7,1.7,,,,0,0,0,0,0,0,"PPG",0
1,4,0,0,12200,2094748,"2015-05-12T00:00:00",10200,1.6,1.6,1.7,1.7,1.6,1.6,,,,0,0,5,0,0,10200,"PPG",16320000
1,6,600,960000,7500,2094648,"2015-05-11T00:00:00",4900,1.6,1.7,1.6,1.6,1.6,1.6,,,,0,0,4,0,0,4900,"PPG",7840000
1,2,0,0,5100,2094418,"2015-05-08T00:00:00",2350,1.883,1.8,1.7,1.9,1.7,1.9,,,,0,0,3,0,0,2300,"PPG",4425050
1,7,0,0,3800,2094318,"2015-05-07T00:00:00",3800,1.909,1.9,1.8,2,1.8,2,,,,0,0,9,1500,2730000,9200,"PPG",7254200
1,2,0,0,1100,2094318,"2015-05-06T00:00:00",100,1.9,1.9,1.9,1.9,1.9,1.9,,,,0,0,3,100,190000,1400,"PPG",190000
1,3,400,760000,1200,2094118,"2015-05-05T00:00:00",830,1.9,1.9,1.9,1.9,1.9,1.9,,,,0,0,2,830,1564000,2900,"PPG",1577000
1,3,100,190000,6600,2094518,"2015-05-04T00:00:00",100,1.9,1.9,1.9,1.9,1.9,1.9,,,,0,0,2,100,190000,1300,"PPG",190000
1,10,1000,1900000,23700,2094618,"2015-04-27T00:00:00",22200,1.9,2.1,1.9,1.9,1.9,1.9,,,,95000,50,11,0,0,23700,"PPG",42275000
1,9,0,0,4800,2095618,"2015-04-24T00:00:00",1900,2.113,2.2,2.1,2.2,2.1,2.1,,,,0,0,6,200,440000,2300,"PPG",4014700
1,7,0,0,1400,2095618,"2015-04-23T00:00:00",800,2.2,2.2,2.2,2.2,2.2,2.2,,,,0,0,2,0,0,2000,"PPG",1760000
1,12,0,0,3700,2095618,"2015-04-22T00:00:00",1000,2.2,2,2.2,2.2,2.2,2.2,,,,0,0,1,0,0,1000,"PPG",2200000
1,7,600,1260000,7500,2095618,"2015-04-21T00:00:00",7500,2.011,2.2,2,2.1,2,2.1,,,,0,0,4,0,0,10600,"PPG",15082500
1,5,0,0,10200,2096218,"2015-04-20T00:00:00",10200,2.2,2.4,2.2,2.2,2.2,2.2,,,,0,0,5,0,0,14300,"PPG",22440000
1,1,0,0,1500,2096218,"2015-04-17T00:00:00",1500,2.4,2.6,2.4,2.4,2.4,2.4,,,,0,0,4,0,0,10300,"PPG",3600000
1,3,0,0,300,2096218,"2015-04-16T00:00:00",300,2.633,2.8,2.6,2.7,2.6,2.7,,,,0,0,4,0,0,8500,"PPG",789900
1,0,0,0,0,2096218,"2015-04-15T00:00:00",0,2.8,2.8,2.8,2.8,2.8,2.8,,,,0,0,2,0,0,4400,"PPG",0
1,1,0,0,100,2096218,"2015-04-14T00:00:00",0,2.8,2.8,2.8,2.8,2.8,2.8,,,,0,0,3,0,0,3400,"PPG",0
1,0,0,0,0,2096218,"2015-04-13T00:00:00",0,2.8,2.8,2.8,2.8,2.8,2.8,,,,0,0,1,0,0,400,"PPG",0
1,1,0,0,100,2096218,"2015-04-10T00:00:00",0,2.8,2.8,2.8,2.8,2.8,2.8,,,,0,0,2,0,0,1400,"PPG",0
1,1,0,0,100,2096218,"2015-04-09T00:00:00",0,2.8,2.8,2.8,2.8,2.8,2.8,,,,0,0,2,0,0,1400,"PPG",0
1,1,0,0,100,2096218,"2015-04-08T00:00:00",0,2.8,2.8,2.8,2.8,2.8,2.8,,,,0,0,2,0,0,11600,"PPG",0
1,1,0,0,100,2096218,"2015-04-07T00:00:00",0,2.8,2.8,2.8,2.8,2.8,2.8,,,,0,0,1,0,0,400,"PPG",0
1,2,0,0,200,2096218,"2015-04-06T00:00:00",100,2.8,3,2.8,2.8,2.8,2.8,,,,0,0,8,0,0,14000,"PPG",280000
1,1,0,0,100,2096218,"2015-04-03T00:00:00",0,3,3,3,3,3,3,,,,0,0,6,0,0,6300,"PPG",0
1,2,0,0,200,2096218,"2015-04-02T00:00:00",0,3,3,3,3,3,3,,,,0,0,4,0,0,1200,"PPG",0
1,2,0,0,200,2096218,"2015-04-01T00:00:00",100,3,3.1,3,3,3,3,,,,0,0,8,0,0,14600,"PPG",300000
1,2,0,0,300,2096218,"2015-03-31T00:00:00",235,3.1,2.9,3.1,3.1,3.1,3.1,,,,0,0,5,0,0,4900,"PPG",728500
1,2,0,0,300,2096218,"2015-03-30T00:00:00",0,2.9,2.9,2.9,2.9,2.9,2.9,,,,0,0,2,0,0,500,"PPG",0
1,2,0,0,200,2096218,"2015-03-27T00:00:00",0,2.9,2.9,2.9,2.9,2.9,2.9,,,,0,0,4,0,0,12000,"PPG",0
1,6,0,0,1600,2096218,"2015-03-26T00:00:00",360,2.833,2.7,2.9,2.9,2.7,2.7,,,,0,0,3,0,0,300,"PPG",1019880
1,4,0,0,2700,2096218,"2015-03-25T00:00:00",500,2.7,2.7,2.7,2.7,2.7,2.7,,,,0,0,6,0,0,800,"PPG",1350000
1,5,0,0,2300,2096218,"2015-03-24T00:00:00",0,2.7,2.7,2.7,2.7,2.7,2.7,,,,0,0,3,0,0,500,"PPG",0
1,4,0,0,4200,2096218,"2015-03-23T00:00:00",1900,2.656,2.8,2.7,2.7,2.6,2.6,,,,0,0,8,0,0,2800,"PPG",5046400
1,1,0,0,2000,2096218,"2015-03-20T00:00:00",0,2.8,2.8,2.8,2.8,2.8,2.8,,,,0,0,6,0,0,3500,"PPG",0
1,1,0,0,1000,2096218,"2015-03-19T00:00:00",0,2.8,2.8,2.8,2.8,2.8,2.8,,,,0,0,5,0,0,1000,"PPG",0
1,1,0,0,100,2096218,"2015-03-18T00:00:00",0,2.8,2.8,2.8,2.8,2.8,2.8,,,,0,0,5,0,0,1000,"PPG",0
1,2,0,0,1100,2096218,"2015-03-17T00:00:00",100,2.8,2.8,2.8,2.8,2.8,2.8,,,,0,0,4,0,0,1300,"PPG",280000
1,3,0,0,1200,2096218,"2015-03-16T00:00:00",0,2.8,2.8,2.8,2.8,2.8,2.8,,,,0,0,2,0,0,700,"PPG",0
1,5,0,0,2800,2096218,"2015-03-13T00:00:00",0,2.8,2.8,2.8,2.8,2.8,2.8,,,,0,0,3,0,0,900,"PPG",0
1,5,0,0,2600,2096218,"2015-03-12T00:00:00",0,2.8,2.8,2.8,2.8,2.8,2.8,,,,0,0,3,0,0,800,"PPG",0
1,2,0,0,200,2096218,"2015-03-11T00:00:00",200,2.8,3.1,2.8,2.8,2.8,2.8,,,,0,0,8,0,0,16300,"PPG",560000
1,4,0,0,700,2096218,"2015-03-10T00:00:00",500,3.1,3.1,3.1,3.1,2.8,2.8,,,,0,0,9,0,0,15700,"PPG",1550000
1,2,0,0,800,2096218,"2015-03-09T00:00:00",300,3.1,3,3.1,3.1,3.1,3.1,,,,0,0,7,0,0,1500,"PPG",930000
1,10,0,0,5800,2096218,"2015-03-06T00:00:00",5300,2.9,2.9,3,3,2.7,2.7,,,,0,0,5,0,0,5300,"PPG",15370000
1,1,0,0,1000,2096218,"2015-03-05T00:00:00",1000,2.9,3.2,2.9,2.9,2.9,2.9,,,,0,0,15,0,0,9900,"PPG",2900000
1,5,0,0,2400,2096218,"2015-03-04T00:00:00",200,3.2,3,3.2,3.2,3.2,3.2,,,,0,0,5,0,0,4800,"PPG",640000
1,4,0,0,2900,2096218,"2015-03-03T00:00:00",100,3,2.8,3,3,3,3,,,,0,0,2,0,0,400,"PPG",300000
1,3,0,0,3000,2096218,"2015-03-02T00:00:00",0,2.8,2.8,2.8,2.8,2.8,2.8,,,,0,0,4,0,0,1100,"PPG",0
1,2,0,0,5000,2096218,"2015-02-27T00:00:00",4000,2.8,2.7,2.8,2.8,2.8,2.8,,,,0,0,5,0,0,6300,"PPG",11200000
1,2,0,0,500,2096218,"2015-02-26T00:00:00",0,2.7,2.7,2.7,2.7,2.7,2.7,,,,0,0,3,0,0,3900,"PPG",0
1,4,0,0,1700,2096218,"2015-02-25T00:00:00",1700,2.7,2.8,2.7,2.8,2.6,2.8,,,,0,0,6,0,0,2500,"PPG",4590000
1,2,0,0,4000,2096218,"2015-02-24T00:00:00",2000,2.8,2.8,2.8,2.8,2.8,2.8,,,,0,0,6,0,0,4900,"PPG",5600000
1,1,0,0,100,2096218,"2015-02-13T00:00:00",0,2.8,2.8,2.8,2.8,2.8,2.8,,,,0,0,5,0,0,3700,"PPG",0
1,6,0,0,4000,2096218,"2015-02-12T00:00:00",1000,2.8,2.8,2.8,2.8,2.8,2.8,,,,0,0,4,0,0,2000,"PPG",2800000
1,5,0,0,800,2096218,"2015-02-11T00:00:00",600,2.8,2.9,2.8,2.8,2.7,2.7,,,,0,0,9,0,0,2700,"PPG",1680000
1,5,0,0,3600,2096218,"2015-02-10T00:00:00",400,2.9,2.7,2.9,2.9,2.9,2.9,,,,0,0,3,0,0,600,"PPG",1160000
1,11,0,0,6000,2096218,"2015-02-09T00:00:00",500,2.7,2.7,2.7,2.7,2.7,2.7,,,,0,0,3,0,0,2500,"PPG",1350000
1,6,0,0,12600,2096218,"2015-02-06T00:00:00",1300,2.7,2.9,2.7,2.7,2.7,2.7,,,,0,0,5,0,0,7200,"PPG",3510000
1,8,0,0,8300,2096218,"2015-02-05T00:00:00",7800,2.9,2.9,2.9,2.9,2.7,2.8,,,,0,0,6,0,0,8400,"PPG",22620000
1,2,0,0,1400,2096218,"2015-02-04T00:00:00",100,2.9,3.2,2.9,2.9,2.9,2.9,,,,0,0,6,0,0,5300,"PPG",290000
1,2,0,0,200,2096218,"2015-02-03T00:00:00",100,3.2,3.4,3.2,3.2,3.2,3.2,,,,0,0,4,0,0,4400,"PPG",320000
1,1,0,0,100,2096218,"2015-02-02T00:00:00",0,3.4,3.4,3.4,3.4,3.4,3.4,,,,0,0,6,0,0,5600,"PPG",0
1,3,0,0,400,2096218,"2015-01-30T00:00:00",200,3.4,3.2,3.4,3.4,3.4,3.4,,,,0,0,3,0,0,1000,"PPG",680000
1,1,0,0,1000,2096218,"2015-01-29T00:00:00",0,3.2,3.2,3.2,3.2,3.2,3.2,,,,0,0,4,0,0,1100,"PPG",0
1,2,0,0,200,2096218,"2015-01-28T00:00:00",0,3.2,3.2,3.2,3.2,3.2,3.2,,,,0,0,3,0,0,1600,"PPG",0
1,2,0,0,200,2096218,"2015-01-27T00:00:00",0,3.2,3.2,3.2,3.2,3.2,3.2,,,,0,0,2,0,0,3400,"PPG",0
1,4,0,0,800,2096218,"2015-01-26T00:00:00",800,3.2,3.5,3.2,3.3,3.2,3.3,,,,0,0,8,0,0,8300,"PPG",2560000
1,2,0,0,200,2096218,"2015-01-23T00:00:00",0,3.5,3.5,3.5,3.5,3.5,3.5,,,,0,0,3,0,0,1600,"PPG",0
1,4,0,0,800,2096118,"2015-01-22T00:00:00",0,3.5,3.5,3.5,3.5,3.5,3.5,,,,0,0,5,0,0,3900,"PPG",0
1,2,0,0,200,2096118,"2015-01-21T00:00:00",0,3.5,3.5,3.5,3.5,3.5,3.5,,,,0,0,4,0,0,5500,"PPG",0
1,4,0,0,800,2096118,"2015-01-20T00:00:00",0,3.5,3.5,3.5,3.5,3.5,3.5,,,,0,0,6,0,0,6400,"PPG",0
1,1,0,0,100,2096118,"2015-01-19T00:00:00",100,3.5,3.7,3.5,3.5,3.5,3.5,,,,0,0,5,100,350000,4100,"PPG",350000
1,0,0,0,0,2096118,"2015-01-16T00:00:00",0,3.7,3.7,3.7,3.7,3.7,3.7,,,,0,0,7,0,0,9500,"PPG",0
1,1,0,0,100,2096118,"2015-01-15T00:00:00",0,3.7,3.7,3.7,3.7,3.7,3.7,,,,0,0,4,0,0,1400,"PPG",0
1,1,0,0,100,2096118,"2015-01-14T00:00:00",0,3.7,3.7,3.7,3.7,3.7,3.7,,,,0,0,4,0,0,1900,"PPG",0
1,0,0,0,0,2096118,"2015-01-13T00:00:00",0,3.7,3.7,3.7,3.7,3.7,3.7,,,,0,0,8,0,0,10500,"PPG",0
1,0,0,0,0,2096118,"2015-01-12T00:00:00",0,3.7,3.7,3.7,3.7,3.7,3.7,,,,0,0,7,0,0,8900,"PPG",0
1,1,0,0,100,2096118,"2015-01-09T00:00:00",0,3.7,3.7,3.7,3.7,3.7,3.7,,,,0,0,4,0,0,2500,"PPG",0
1,0,0,0,0,2096118,"2015-01-08T00:00:00",0,3.7,3.7,3.7,3.7,3.7,3.7,,,,0,0,4,0,0,2800,"PPG",0
1,0,0,0,0,2096118,"2015-01-07T00:00:00",0,3.7,3.7,3.7,3.7,3.7,3.7,,,,0,0,7,0,0,10300,"PPG",0
1,0,0,0,0,2096118,"2015-01-06T00:00:00",0,3.7,3.7,3.7,3.7,3.7,3.7,,,,0,0,9,0,0,7500,"PPG",0
1,1,0,0,100,2096118,"2015-01-05T00:00:00",0,3.7,3.7,3.7,3.7,3.7,3.7,,,,0,0,6,0,0,4300,"PPG",0
1,0,0,0,0,2096118,"2014-12-31T00:00:00",0,3.7,3.7,3.7,3.7,3.7,3.7,,,,0,0,11,0,0,23800,"PPG",0
1,3,0,0,1100,2096118,"2014-12-30T00:00:00",700,3.7,3.5,3.7,3.7,3.7,3.7,,,,0,0,9,0,0,6500,"PPG",2590000
1,3,0,0,2200,2096118,"2014-12-29T00:00:00",1900,3.5,3.3,3.5,3.5,3.3,3.3,,,,0,0,9,0,0,5500,"PPG",6650000
1,0,0,0,0,2096118,"2014-12-26T00:00:00",0,3.3,3.3,3.3,3.3,3.3,3.3,,,,0,0,7,0,0,2300,"PPG",0
1,1,0,0,1000,2096118,"2014-12-25T00:00:00",100,3.3,3.3,3.3,3.3,3.3,3.3,,,,0,0,7,0,0,2300,"PPG",330000
1,0,0,0,0,2096118,"2014-12-24T00:00:00",0,3.3,3.3,3.3,3.3,3.3,3.3,,,,0,0,7,0,0,2400,"PPG",0
1,0,0,0,0,2096118,"2014-12-23T00:00:00",0,3.3,3.3,3.3,3.3,3.3,3.3,,,,0,0,7,0,0,2900,"PPG",0
1,1,0,0,100,2096118,"2014-12-22T00:00:00",0,3.3,3.3,3.3,3.3,3.3,3.3,,,,0,0,8,0,0,3800,"PPG",0
1,6,0,0,4700,2096118,"2014-12-19T00:00:00",4000,3,3,3.3,3.3,2.9,2.9,,,,0,0,7,0,0,7000,"PPG",12000000
1,5,0,0,1800,2096118,"2014-12-18T00:00:00",0,3,3,3,3,3,3,,,,0,0,3,0,0,4000,"PPG",0
1,4,0,0,1700,2096118,"2014-12-17T00:00:00",1000,3,3.1,3,3,3,3,,,,0,0,3,0,0,3900,"PPG",3000000
1,5,0,0,900,2096118,"2014-12-16T00:00:00",0,3.1,3.1,3.1,3.1,3.1,3.1,,,,0,0,2,0,0,3200,"PPG",0
1,6,0,0,1300,2096118,"2014-12-15T00:00:00",600,3.1,3.2,3.1,3.1,3.1,3.1,,,,0,0,5,0,0,5300,"PPG",1860000
1,3,0,0,300,2096118,"2014-12-12T00:00:00",0,3.2,3.2,3.2,3.2,3.2,3.2,,,,0,0,3,0,0,700,"PPG",0
1,5,0,0,600,2096118,"2014-12-11T00:00:00",0,3.2,3.2,3.2,3.2,3.2,3.2,,,,0,0,4,0,0,3700,"PPG",0
1,3,0,0,300,2096118,"2014-12-10T00:00:00",0,3.2,3.2,3.2,3.2,3.2,3.2,,,,0,0,5,0,0,1000,"PPG",0
1,3,0,0,600,2096118,"2014-12-09T00:00:00",0,3.2,3.2,3.2,3.2,3.2,3.2,,,,0,0,3,0,0,5600,"PPG",0
1,2,0,0,200,2096118,"2014-12-08T00:00:00",0,3.2,3.2,3.2,3.2,3.2,3.2,,,,0,0,5,0,0,6400,"PPG",0
1,4,0,0,800,2096118,"2014-12-05T00:00:00",0,3.2,3.2,3.2,3.2,3.2,3.2,,,,0,0,5,0,0,6300,"PPG",0
1,4,0,0,400,2096118,"2014-12-04T00:00:00",0,3.2,3.2,3.2,3.2,3.2,3.2,,,,0,0,4,0,0,4600,"PPG",0
1,6,0,0,1200,2096118,"2014-12-03T00:00:00",0,3.2,3.2,3.2,3.2,3.2,3.2,,,,0,0,5,0,0,5600,"PPG",0
1,5,0,0,2600,2096118,"2014-12-02T00:00:00",0,3.2,3.2,3.2,3.2,3.2,3.2,,,,0,0,6,0,0,3900,"PPG",0
1,5,0,0,3300,2096118,"2014-12-01T00:00:00",0,3.2,3.2,3.2,3.2,3.2,3.2,,,,0,0,4,0,0,4400,"PPG",0
1,5,0,0,6300,2096118,"2014-11-28T00:00:00",0,3.2,3.2,3.2,3.2,3.2,3.2,,,,0,0,4,0,0,3600,"PPG",0
1,5,0,0,5300,2096118,"2014-11-27T00:00:00",0,3.2,3.2,3.2,3.2,3.2,3.2,,,,0,0,5,0,0,3700,"PPG",0
1,4,0,0,3300,2096118,"2014-11-26T00:00:00",0,3.2,3.2,3.2,3.2,3.2,3.2,,,,0,0,5,0,0,5500,"PPG",0
1,7,0,0,4500,2096118,"2014-11-25T00:00:00",2300,3.2,3.3,3.2,3.2,3.2,3.2,,,,0,0,8,0,0,5000,"PPG",7360000
1,2,0,0,1200,2096118,"2014-11-24T00:00:00",0,3.3,3.3,3.3,3.3,3.3,3.3,,,,0,0,9,0,0,6500,"PPG",0
1,5,0,0,1500,2096118,"2014-11-21T00:00:00",100,3.3,3.3,3.3,3.3,3.3,3.3,,,,0,0,10,0,0,8100,"PPG",330000
1,4,0,0,7100,2096118,"2014-11-20T00:00:00",100,3.3,3.2,3.3,3.3,3.3,3.3,,,,0,0,10,0,0,6000,"PPG",330000
1,10,0,0,7600,2096118,"2014-11-19T00:00:00",3000,3.2,3,3.2,3.2,3.2,3.2,,,,0,0,6,0,0,6000,"PPG",9600000
1,10,0,0,5800,2096118,"2014-11-18T00:00:00",1000,3,3.1,3,3,3,3,,,,0,0,5,0,0,4300,"PPG",3000000
1,10,0,0,2600,2096118,"2014-11-17T00:00:00",300,3.1,3.2,3.1,3.2,3.1,3.2,,,,0,0,8,0,0,7400,"PPG",930000
1,7,0,0,5300,2096118,"2014-11-14T00:00:00",0,3.2,3.2,3.2,3.2,3.2,3.2,,,,0,0,7,0,0,6400,"PPG",0
1,8,0,0,7800,2096118,"2014-11-13T00:00:00",3200,3.2,3.2,3.2,3.2,3,3,,,,0,0,7,0,0,10000,"PPG",10240000
1,11,0,0,7200,2096118,"2014-11-12T00:00:00",1200,3.2,3.2,3.2,3.2,3.2,3.2,,,,0,0,7,0,0,5800,"PPG",3840000
1,9,0,0,10100,2096118,"2014-11-11T00:00:00",3000,3.2,3.1,3.2,3.2,3.2,3.2,,,,0,0,6,0,0,7200,"PPG",9600000
1,5,0,0,800,2096118,"2014-11-10T00:00:00",100,3.1,3.2,3.1,3.1,3.1,3.1,,,,0,0,4,0,0,3100,"PPG",310000
1,11,0,0,7500,2096118,"2014-11-07T00:00:00",100,3.2,3,3.2,3.2,3.2,3.2,,,,0,0,2,0,0,4500,"PPG",320000
1,10,0,0,7300,2093118,"2014-11-06T00:00:00",0,3,3,3,3,3,3,,,,0,0,4,0,0,3200,"PPG",0
1,10,0,0,4400,2093118,"2014-11-05T00:00:00",3500,3,3.2,3,3.2,3,3.2,,,,0,0,7,0,0,8300,"PPG",10500000
1,9,0,0,2900,2093118,"2014-11-04T00:00:00",0,3.2,3.2,3.2,3.2,3.2,3.2,,,,0,0,4,0,0,5100,"PPG",0
1,8,0,0,4900,2093118,"2014-11-03T00:00:00",3000,3.2,3.4,3.2,3.2,3.2,3.2,,,,0,0,6,3000,9660000,9500,"PPG",9600000
1,4,0,0,2000,2093118,"2014-10-31T00:00:00",300,3.4,3.4,3.4,3.4,3.4,3.4,,,,0,0,7,0,0,5200,"PPG",1020000
1,6,0,0,4900,2093118,"2014-10-30T00:00:00",4600,3.4,3.5,3.4,3.4,3.2,3.2,,,,0,0,10,0,0,15700,"PPG",15640000
1,6,0,0,5600,2093118,"2014-10-29T00:00:00",1400,3.5,3.2,3.5,3.5,3.4,3.4,,,,0,0,4,0,0,1400,"PPG",4900000
1,14,0,0,11700,2093118,"2014-10-28T00:00:00",6600,3.2,3.3,3.2,3.2,3,3,,,,0,0,11,0,0,11200,"PPG",21120000
1,7,0,0,4200,2093118,"2014-10-27T00:00:00",2800,3.3,3.5,3.3,3.3,3.3,3.3,,,,0,0,6,0,0,6200,"PPG",9240000
1,10,0,0,12400,2093118,"2014-10-24T00:00:00",7000,3.6,3.6,3.5,3.6,3.5,3.5,,,,0,0,15,0,0,26700,"PPG",25200000
1,4,0,0,3100,2093118,"2014-10-23T00:00:00",2000,3.6,3.7,3.6,3.6,3.4,3.4,,,,0,0,10,0,0,17200,"PPG",7200000
1,7,300,1050000,5300,2093118,"2014-10-22T00:00:00",600,3.7,3.5,3.7,3.7,3.4,3.4,,,,0,0,6,0,0,5800,"PPG",2220000
1,4,0,0,700,2093418,"2014-10-21T00:00:00",100,3.5,3.7,3.5,3.5,3.5,3.5,,,,0,0,11,0,0,14100,"PPG",350000
1,0,0,0,0,2093418,"2014-10-20T00:00:00",0,3.7,3.7,3.7,3.7,3.7,3.7,,,,0,0,8,0,0,18300,"PPG",0
1,10,0,0,13900,2093418,"2014-10-17T00:00:00",10300,3.4,3.4,3.7,3.7,3.4,3.4,,,,0,0,7,0,0,12400,"PPG",35020000
1,5,0,0,800,2093218,"2014-10-16T00:00:00",200,3.4,3.5,3.4,3.4,3.4,3.4,,,,0,0,6,0,0,10800,"PPG",680000
1,8,0,0,7500,2093218,"2014-10-15T00:00:00",6700,3.5,3.5,3.5,3.5,3.5,3.5,,,,0,0,11,0,0,15700,"PPG",23450000
1,6,0,0,1900,2093218,"2014-10-14T00:00:00",1300,3.5,3.6,3.5,3.6,3.5,3.6,,,,0,0,8,0,0,8600,"PPG",4550000
1,7,0,0,4300,2092718,"2014-10-13T00:00:00",1700,3.6,3.6,3.6,3.7,3.6,3.7,,,,0,0,8,200,740000,7000,"PPG",6120000
1,5,0,0,5600,2092718,"2014-10-10T00:00:00",30,3.6,3.6,3.6,3.6,3.6,3.6,,,,0,0,6,0,0,9600,"PPG",108000
1,5,0,0,4600,2092718,"2014-10-09T00:00:00",2840,3.6,3.9,3.6,3.7,3.6,3.7,,,,0,0,12,0,0,13700,"PPG",10224000
1,6,0,0,7300,2092718,"2014-10-08T00:00:00",6625,3.9,3.6,3.9,3.9,3.5,3.5,,,,0,0,16,500,1750000,17700,"PPG",25837500
1,1,0,0,100,2092718,"2014-10-07T00:00:00",0,3.6,3.6,3.6,3.6,3.6,3.6,,,,0,0,8,0,0,8300,"PPG",0
1,4,0,0,19000,2092618,"2014-10-06T00:00:00",10000,3.6,3.5,3.6,3.6,3.2,3.2,,,,0,0,14,0,0,14700,"PPG",36000000
1,4,0,0,5600,2092618,"2014-10-03T00:00:00",600,3.5,3.5,3.5,3.5,3.3,3.4,,,,0,0,10,0,0,10300,"PPG",2100000
1,2,0,0,3100,2092618,"2014-10-02T00:00:00",230,3.5,3.3,3.5,3.5,3,3,,,,0,0,7,0,0,7200,"PPG",805000
1,19,300,960000,23200,2092618,"2014-10-01T00:00:00",400,3.3,3,3.3,3.3,3.2,3.2,,,,0,0,4,100,330000,1200,"PPG",1320000
1,6,0,0,4900,2092918,"2014-09-30T00:00:00",2400,3,3.3,3,3,3,3,,,,0,0,8,0,0,11700,"PPG",7200000
1,2,0,0,500,2092918,"2014-09-29T00:00:00",0,3.3,3.3,3.3,3.3,3.3,3.3,,,,0,0,4,0,0,8100,"PPG",0
1,9,0,0,18500,2092918,"2014-09-26T00:00:00",13300,3.35,3.2,3.3,3.4,3.3,3.4,,,,0,0,18,0,0,25200,"PPG",44555000
1,13,0,0,8200,2089618,"2014-09-25T00:00:00",4000,3.2,3.1,3.2,3.2,3,3,,,,0,0,8,0,0,9500,"PPG",12800000
1,13,0,0,7600,2089618,"2014-09-24T00:00:00",1400,3.1,3.1,3.1,3.1,3.1,3.1,,,,0,0,3,0,0,4400,"PPG",4340000
1,11,0,0,15800,2089518,"2014-09-23T00:00:00",100,3.1,3.2,3.1,3.1,3.1,3.1,,,,0,0,5,0,0,5600,"PPG",310000
1,7,0,0,14200,2089518,"2014-09-22T00:00:00",14300,3.2,3.5,3.2,3.7,3.2,3.5,,,,0,0,19,3300,10890000,30200,"PPG",45760000
1,4,0,0,3300,2089518,"2014-09-19T00:00:00",0,3.5,3.5,3.5,3.5,3.5,3.5,,,,0,0,11,0,0,17700,"PPG",0
1,7,100,350000,24000,2089418,"2014-09-18T00:00:00",10800,3.5,3.4,3.5,3.7,3.3,3.7,,,,0,0,18,100,370000,28500,"PPG",37800000
1,5,0,0,10600,2089018,"2014-09-17T00:00:00",100,3.4,3.4,3.4,3.4,3.4,3.4,,,,0,0,13,0,0,18200,"PPG",340000
1,7,0,0,16200,2089018,"2014-09-16T00:00:00",4100,3.4,3.4,3.4,3.4,3.2,3.4,,,,0,0,13,0,0,16100,"PPG",13940000
1,14,0,0,69600,2089018,"2014-09-15T00:00:00",54100,3.4,3.1,3.4,3.4,3,3.1,,,,0,0,23,100,340000,58100,"PPG",183940000
1,8,0,0,25500,2089018,"2014-09-12T00:00:00",5800,3.05,2.9,3.1,3.1,3,3,,,,0,0,6,500,1550000,5800,"PPG",17690000
1,8,0,0,9900,2089018,"2014-09-11T00:00:00",4600,2.9,3,2.9,3,2.9,2.9,,,,0,0,11,0,0,10600,"PPG",13340000
1,14,0,0,16700,2089018,"2014-09-10T00:00:00",6100,3,3,3,3,3,3,,,,0,0,3,0,0,11200,"PPG",18300000
1,9,500,1550000,12800,2089018,"2014-09-09T00:00:00",4200,3,3.1,3,3.1,3,3.1,,,,0,0,12,0,0,26000,"PPG",12600000
1,12,1900,5700000,43800,2089518,"2014-09-08T00:00:00",32100,3.1,2.9,3.1,3.1,3,3,,,,0,0,17,0,0,35300,"PPG",99510000
1,6,100,290000,15500,2091418,"2014-09-05T00:00:00",100,2.9,2.9,2.9,2.9,2.9,2.9,,,,0,0,8,0,0,7200,"PPG",290000
1,6,100,290000,7900,2091518,"2014-09-04T00:00:00",100,2.9,2.9,2.9,2.9,2.9,2.9,,,,0,0,7,0,0,11800,"PPG",290000
1,12,1000,2920000,16800,2091618,"2014-09-03T00:00:00",9400,2.9,2.9,2.9,3,2.9,2.9,,,,0,0,14,0,0,11500,"PPG",27260000
1,17,0,0,31400,2092618,"2014-08-29T00:00:00",2945,2.85,2.7,2.9,2.9,2.8,2.8,,,,0,0,10,0,0,4300,"PPG",8393250
1,14,0,0,35200,2092618,"2014-08-28T00:00:00",24000,2.7,2.9,2.7,2.8,2.7,2.7,,,,0,0,18,0,0,25900,"PPG",64800000
1,6,0,0,10400,2092618,"2014-08-27T00:00:00",200,2.9,2.9,2.9,2.9,2.9,2.9,,,,0,0,11,0,0,6900,"PPG",580000
1,3,0,0,11300,2092618,"2014-08-26T00:00:00",0,2.9,2.9,2.9,2.9,2.9,2.9,,,,0,0,9,0,0,3700,"PPG",0
1,13,0,0,20500,2092618,"2014-08-25T00:00:00",100,2.9,2.7,2.9,2.9,2.9,2.9,,,,0,0,2,0,0,600,"PPG",290000
1,20,0,0,35100,2092618,"2014-08-22T00:00:00",23600,2.8,2.8,2.7,2.8,2.7,2.8,,,,0,0,13,0,0,38800,"PPG",66080000
1,7,0,0,13500,2092618,"2014-08-21T00:00:00",1700,2.8,2.9,2.8,2.8,2.8,2.8,,,,0,0,7,0,0,3500,"PPG",4760000
1,14,0,0,25900,2092618,"2014-08-20T00:00:00",10800,2.9,2.8,2.9,3,2.8,2.8,,,,0,0,11,0,0,11400,"PPG",31320000
1,10,0,0,14600,2092618,"2014-08-19T00:00:00",2400,2.8,2.8,2.8,2.8,2.8,2.8,,,,0,0,5,0,0,16100,"PPG",6720000
1,8,0,0,22600,2092618,"2014-08-18T00:00:00",505,2.8,2.7,2.8,2.8,2.8,2.8,,,,0,0,6,0,0,3600,"PPG",1414000
1,10,0,0,19800,2092618,"2014-08-15T00:00:00",300,2.7,2.7,2.7,2.7,2.7,2.7,,,,0,0,3,0,0,700,"PPG",810000
1,12,0,0,27400,2092618,"2014-08-14T00:00:00",0,2.7,2.7,2.7,2.7,2.7,2.7,,,,0,0,4,0,0,1400,"PPG",0
1,15,0,0,10100,2092618,"2014-08-13T00:00:00",4300,2.7,2.8,2.7,2.8,2.7,2.7,,,,0,0,7,0,0,8600,"PPG",11610000
1,9,0,0,13000,2092618,"2014-08-12T00:00:00",8800,2.8,2.9,2.8,2.8,2.8,2.8,,,,0,0,6,0,0,12200,"PPG",24640000
1,3,0,0,7500,2092618,"2014-08-11T00:00:00",4800,2.9,3.2,2.9,2.9,2.9,2.9,,,,232000,80,14,0,0,23000,"PPG",14152000
1,8,0,0,8600,2092618,"2014-08-08T00:00:00",500,3,3,3.2,3.2,2.8,2.8,,,,0,0,10,0,0,7700,"PPG",1500000
1,8,0,0,8400,2092618,"2014-08-07T00:00:00",200,3,2.9,3,3,2.8,2.8,,,,0,0,6,0,0,2300,"PPG",600000
1,10,0,0,13300,2092618,"2014-08-06T00:00:00",100,2.9,2.9,2.9,2.9,2.9,2.9,,,,0,0,6,0,0,4300,"PPG",290000
1,4,0,0,10500,2092618,"2014-08-05T00:00:00",5000,2.9,3,2.9,3,2.9,3,,,,0,0,9,0,0,9500,"PPG",14500000
1,5,0,0,10900,2092618,"2014-08-04T00:00:00",2000,3,3.1,3,3,3,3,,,,0,0,15,0,0,20500,"PPG",6000000
1,8,0,0,20400,2092618,"2014-08-01T00:00:00",12000,2.9,2.9,3.1,3.1,2.9,2.9,,,,0,0,12,0,0,12100,"PPG",34800000
1,5,0,0,8700,2092618,"2014-07-31T00:00:00",3000,2.9,2.9,2.9,2.9,2.8,2.8,,,,0,0,7,0,0,5000,"PPG",8700000
1,2,0,0,4300,2092618,"2014-07-30T00:00:00",0,2.9,2.9,2.9,2.9,2.9,2.9,,,,0,0,6,0,0,3300,"PPG",0
1,6,0,0,9500,2092618,"2014-07-29T00:00:00",3200,2.9,2.8,2.9,2.9,2.7,2.7,,,,0,0,6,0,0,5500,"PPG",9280000
1,9,0,0,36000,2092618,"2014-07-28T00:00:00",31000,2.8,3,2.8,3,2.8,2.8,,,,0,0,13,0,0,35700,"PPG",86800000
1,2,0,0,8800,2092618,"2014-07-25T00:00:00",7600,3.1,3.1,3,3.2,3,3.2,,,,140000,50,12,0,0,17500,"PPG",23700000
1,5,0,0,11900,2092618,"2014-07-24T00:00:00",5500,3.1,3,3.1,3.3,3,3,,,,0,0,14,0,0,11700,"PPG",17050000
1,5,0,0,16900,2092618,"2014-07-23T00:00:00",7200,3,2.9,3,3,2.9,2.9,,,,0,0,10,0,0,16100,"PPG",21600000
1,13,0,0,37600,2092618,"2014-07-22T00:00:00",22900,2.9,2.8,2.9,3,2.9,2.9,,,,0,0,14,0,0,25100,"PPG",66410000
1,3,0,0,13800,2092618,"2014-07-21T00:00:00",1100,2.8,2.9,2.8,3,2.8,3,,,,0,0,10,0,0,19800,"PPG",3080000
1,3,0,0,12500,2092618,"2014-07-18T00:00:00",2300,2.9,3,2.9,2.9,2.9,2.9,,,,0,0,15,0,0,24900,"PPG",6670000
1,8,0,0,19500,2092618,"2014-07-17T00:00:00",15600,3,2.9,3,3,2.9,2.9,,,,0,0,19,0,0,20800,"PPG",46800000
1,9,0,0,27800,2092618,"2014-07-16T00:00:00",2000,2.9,3,2.9,2.9,2.9,2.9,,,,0,0,16,0,0,22300,"PPG",5800000
1,6,0,0,16600,2092618,"2014-07-15T00:00:00",500,3,2.9,3,3,2.9,2.9,,,,0,0,12,0,0,22800,"PPG",1500000
1,9,0,0,25700,2092618,"2014-07-14T00:00:00",8100,2.9,2.7,2.9,2.9,2.8,2.8,,,,0,0,12,0,0,10000,"PPG",23490000
1,13,0,0,35800,2092618,"2014-07-11T00:00:00",6100,2.7,2.6,2.7,2.7,2.7,2.7,,,,0,0,8,0,0,13100,"PPG",16470000
1,10,0,0,14700,2092618,"2014-07-10T00:00:00",1300,2.6,2.7,2.6,2.7,2.6,2.7,,,,0,0,11,0,0,15000,"PPG",3380000
1,8,0,0,20600,2092618,"2014-07-09T00:00:00",9800,2.7,2.7,2.7,2.7,2.6,2.6,,,,0,0,10,0,0,22100,"PPG",26460000
1,10,0,0,14400,2092618,"2014-07-08T00:00:00",3000,2.7,2.7,2.7,2.7,2.7,2.7,,,,0,0,5,0,0,15000,"PPG",8100000
1,16,0,0,23700,2092618,"2014-07-07T00:00:00",1100,2.7,2.7,2.7,2.7,2.7,2.7,,,,0,0,11,0,0,13100,"PPG",2970000
1,31,0,0,57100,2092618,"2014-07-04T00:00:00",38500,2.7,2.7,2.7,2.7,2.5,2.7,,,,0,0,18,0,0,52500,"PPG",103950000
1,14,0,0,23800,2092618,"2014-07-03T00:00:00",9000,2.7,2.7,2.7,2.7,2.7,2.7,,,,0,0,13,0,0,27400,"PPG",24300000
1,15,0,0,29300,2092618,"2014-07-02T00:00:00",19800,2.7,2.7,2.7,2.7,2.6,2.6,,,,0,0,11,0,0,32800,"PPG",53460000
1,14,0,0,9800,2092618,"2014-07-01T00:00:00",700,2.7,2.7,2.7,2.7,2.7,2.7,,,,0,0,6,0,0,37600,"PPG",1890000
1,15,0,0,29800,2092618,"2014-06-30T00:00:00",16500,2.7,2.7,2.7,2.7,2.7,2.7,,,,0,0,11,0,0,31000,"PPG",44550000
1,21,0,0,22100,2092618,"2014-06-27T00:00:00",1900,2.7,2.7,2.7,2.7,2.6,2.7,,,,0,0,11,0,0,16900,"PPG",5130000
1,18,0,0,33100,2092618,"2014-06-26T00:00:00",15600,2.7,2.8,2.7,2.7,2.7,2.7,,,,0,0,15,0,0,30500,"PPG",42120000
1,14,0,0,30900,2092618,"2014-06-25T00:00:00",7700,2.8,2.7,2.8,2.8,2.7,2.7,,,,0,0,15,0,0,31000,"PPG",21560000
1,14,0,0,22700,2092618,"2014-06-24T00:00:00",3000,2.7,2.8,2.7,2.7,2.6,2.7,,,,0,0,12,0,0,26700,"PPG",8100000
1,12,0,0,15100,2092618,"2014-06-23T00:00:00",100,2.8,2.7,2.8,2.8,2.8,2.8,,,,0,0,9,0,0,43500,"PPG",280000
1,6,0,0,7300,2092618,"2014-06-20T00:00:00",100,2.7,2.8,2.7,2.7,2.7,2.7,,,,0,0,11,0,0,25200,"PPG",270000
1,12,0,0,12900,2092618,"2014-06-19T00:00:00",4600,2.8,2.8,2.8,2.8,2.6,2.7,,,,0,0,16,0,0,20400,"PPG",12880000
1,11,0,0,14300,2092618,"2014-06-18T00:00:00",11300,2.8,2.9,2.8,2.8,2.7,2.7,,,,0,0,20,0,0,45700,"PPG",31640000
1,5,0,0,5800,2092618,"2014-06-17T00:00:00",200,2.9,2.9,2.9,2.9,2.9,2.9,,,,0,0,13,0,0,34700,"PPG",580000
1,15,0,0,20500,2092618,"2014-06-16T00:00:00",4400,2.9,2.7,2.9,2.9,2.8,2.8,,,,0,0,6,0,0,13800,"PPG",12760000
1,16,0,0,16700,2092618,"2014-06-13T00:00:00",0,2.7,2.7,2.7,2.7,2.7,2.7,,,,0,0,3,0,0,10100,"PPG",0
1,6,0,0,10900,2092618,"2014-06-12T00:00:00",6300,2.7,2.9,2.7,2.7,2.7,2.7,,,,0,0,14,0,0,35000,"PPG",17010000
1,3,0,0,3500,2092618,"2014-06-11T00:00:00",0,2.9,2.9,2.9,2.9,2.9,2.9,,,,0,0,16,0,0,39900,"PPG",0
1,5,0,0,8200,2092453,"2014-06-10T00:00:00",5900,2.9,2.8,2.9,2.9,2.8,2.8,,,,0,0,15,0,0,48500,"PPG",17110000
1,17,0,0,29900,2092453,"2014-06-09T00:00:00",13400,2.8,2.6,2.8,2.8,2.7,2.7,,,,0,0,10,0,0,28900,"PPG",37520000
1,10,0,0,6800,2092453,"2014-06-06T00:00:00",2600,2.6,2.6,2.6,2.7,2.6,2.7,,,,0,0,11,0,0,13800,"PPG",6760000
1,16,0,0,21000,2092453,"2014-06-05T00:00:00",1500,2.6,2.4,2.6,2.6,2.4,2.4,,,,143000,65,5,165,403000,1500,"PPG",4043000
1,14,0,0,13500,2092453,"2014-06-04T00:00:00",3300,2.4,2.6,2.4,2.4,2.4,2.4,,,,0,0,8,0,0,35600,"PPG",7920000
1,17,0,0,17700,2092453,"2014-06-03T00:00:00",4100,2.6,2.6,2.6,2.6,2.6,2.6,,,,0,0,13,0,0,34100,"PPG",10660000
1,13,0,0,9400,2092443,"2014-06-02T00:00:00",7000,2.6,2.7,2.6,2.7,2.6,2.7,,,,0,0,17,0,0,47300,"PPG",18200000
1,15,0,0,18400,2092443,"2014-05-30T00:00:00",3800,2.7,2.7,2.7,2.7,2.7,2.7,,,,0,0,16,0,0,41200,"PPG",10260000
1,19,0,0,16200,2092443,"2014-05-29T00:00:00",7600,2.7,2.7,2.7,2.8,2.5,2.5,,,,0,0,17,0,0,44300,"PPG",20520000
1,13,100,280000,31900,2092443,"2014-05-28T00:00:00",1010,2.7,2.7,2.7,2.8,2.7,2.8,,,,0,0,14,10,28000,33700,"PPG",2727000
1,14,0,0,30500,2092543,"2014-05-27T00:00:00",0,2.7,2.7,2.7,2.7,2.7,2.7,,,,0,0,11,0,0,16700,"PPG",0
1,18,100,280000,10600,2092543,"2014-05-26T00:00:00",1890,2.7,2.7,2.7,2.8,2.7,2.8,,,,0,0,9,0,0,12100,"PPG",5103000
1,19,0,0,23300,2092643,"2014-05-23T00:00:00",9900,2.7,2.7,2.7,2.9,2.7,2.7,,,,0,0,14,0,0,19500,"PPG",26730000
1,7,0,0,10900,2092643,"2014-05-22T00:00:00",100,2.7,3,2.7,2.7,2.7,2.7,,,,0,0,23,0,0,40300,"PPG",270000
1,38,0,0,69500,2092643,"2014-05-21T00:00:00",32400,3,2.8,3,3,2.8,2.9,,,,0,0,21,0,0,52200,"PPG",97200000
1,21,0,0,29100,2092643,"2014-05-20T00:00:00",6800,2.8,2.8,2.8,2.9,2.7,2.9,,,,0,0,15,0,0,35900,"PPG",19040000
1,13,0,0,17300,2092643,"2014-05-19T00:00:00",15600,2.8,3,2.8,2.8,2.7,2.8,,,,0,0,24,0,0,29800,"PPG",43680000
1,3,0,0,4600,2092643,"2014-05-16T00:00:00",4500,3,3.2,3,3,3,3,,,,0,0,18,0,0,29600,"PPG",13500000
1,11,0,0,4200,2092643,"2014-05-15T00:00:00",3900,3.2,3.1,3.2,3.2,2.8,3.1,,,,0,0,20,0,0,8800,"PPG",12480000
1,26,0,0,51600,2092643,"2014-05-14T00:00:00",19600,3.1,2.9,3.1,3.1,2.7,2.7,,,,0,0,17,0,0,33300,"PPG",60760000
1,15,0,0,22400,2092643,"2014-05-13T00:00:00",15100,2.9,2.9,2.9,2.9,2.7,2.9,,,,0,0,19,0,0,25300,"PPG",43790000
1,12,100,280000,17500,2092643,"2014-05-12T00:00:00",15100,2.9,2.9,2.9,2.9,2.7,2.8,,,,0,0,17,0,0,18600,"PPG",43790000
1,20,200,540000,64300,2092743,"2014-05-09T00:00:00",28500,2.7,2.7,2.9,2.9,2.6,2.7,,,,0,0,11,0,0,30400,"PPG",76950000
1,12,100,280000,22500,2092943,"2014-05-08T00:00:00",22500,2.7,2.9,2.7,2.9,2.7,2.8,,,,0,0,25,0,0,57100,"PPG",60750000
1,17,0,0,21700,2093043,"2014-05-07T00:00:00",8800,2.9,2.9,2.9,2.9,2.9,2.9,,,,0,0,11,0,0,12800,"PPG",25520000
1,14,100,290000,31300,2093043,"2014-05-06T00:00:00",27800,2.9,3.1,2.9,2.9,2.8,2.9,,,,0,0,20,0,0,34600,"PPG",80620000
1,16,0,0,14000,2093143,"2014-05-05T00:00:00",4800,3.1,3.1,3.1,3.3,3,3,,,,0,0,8,0,0,8000,"PPG",14880000
1,16,0,0,28000,2093143,"2014-04-29T00:00:00",11700,3.1,3.1,3.1,3.1,3,3.1,,,,0,0,12,0,0,19200,"PPG",36270000
1,5,0,0,8400,2093143,"2014-04-28T00:00:00",600,3.1,3.4,3.1,3.6,3.1,3.6,,,,0,0,19,0,0,39100,"PPG",1860000
1,10,100,330000,16700,2093143,"2014-04-25T00:00:00",700,3.3,3.3,3.4,3.5,3.3,3.3,,,,0,0,12,0,0,26400,"PPG",2310000
1,8,0,0,13800,2093243,"2014-04-24T00:00:00",200,3.3,3.4,3.3,3.7,3.3,3.7,,,,0,0,18,0,0,34900,"PPG",660000
1,16,0,0,18800,2093243,"2014-04-23T00:00:00",5110,3.4,3.2,3.4,3.5,3.2,3.5,,,,0,0,13,0,0,17500,"PPG",17374000
1,30,0,0,82300,2093243,"2014-04-22T00:00:00",31500,3.2,3,3.2,3.3,3,3,,,,0,0,22,0,0,39000,"PPG",100800000
1,17,200,600000,32100,2093243,"2014-04-21T00:00:00",13700,3,3.2,3,3.1,3,3.1,,,,0,0,17,0,0,16900,"PPG",41100000
1,24,0,0,25900,2093443,"2014-04-18T00:00:00",6200,3.175,3.3,3.2,3.2,3.1,3.2,,,,0,0,18,0,0,21800,"PPG",19685000
1,26,0,0,42600,2093443,"2014-04-17T00:00:00",12440,3.3,3.3,3.3,3.5,3.3,3.4,,,,0,0,18,0,0,27000,"PPG",41052000
1,33,400,1250000,39300,2093443,"2014-04-16T00:00:00",30800,3.3,3.3,3.3,3.3,3,3.2,,,,0,0,22,0,0,40100,"PPG",101640000
1,19,0,0,33200,2093843,"2014-04-15T00:00:00",14000,3.3,3.4,3.3,3.3,3.2,3.3,,,,0,0,17,0,0,39200,"PPG",46200000
1,19,0,0,29400,2093843,"2014-04-14T00:00:00",8800,3.4,3.5,3.4,3.4,3.3,3.3,,,,0,0,12,0,0,16500,"PPG",29920000
1,27,0,0,43500,2093843,"2014-04-11T00:00:00",17100,3.5,3.5,3.5,3.7,3.5,3.5,,,,0,0,23,0,0,43500,"PPG",59850000
1,26,200,720000,66400,2093843,"2014-04-10T00:00:00",19400,3.5,3.4,3.5,3.6,3.5,3.6,,,,0,0,13,0,0,22500,"PPG",67900000
1,26,0,0,64400,2094043,"2014-04-08T00:00:00",26400,3.45,3.6,3.4,3.5,3.4,3.5,,,,0,0,22,0,0,41600,"PPG",91080000
1,18,0,0,41200,2094043,"2014-04-07T00:00:00",2400,3.6,3.5,3.6,3.6,3.5,3.6,,,,0,0,12,0,0,12900,"PPG",8640000
1,17,0,0,56000,2094043,"2014-04-04T00:00:00",31900,3.7,3.7,3.5,3.7,3.5,3.7,,,,0,0,20,0,0,53700,"PPG",118030000
1,36,300,1020000,81900,2094043,"2014-04-03T00:00:00",17600,3.7,3.4,3.7,3.7,3.4,3.4,,,,0,0,10,0,0,23900,"PPG",65120000
1,21,200,680000,69000,2094343,"2014-04-02T00:00:00",42700,3.4,3.6,3.4,3.8,3.4,3.8,,,,0,0,21,0,0,60000,"PPG",145180000
1,25,0,0,101200,2094543,"2014-04-01T00:00:00",66250,3.6,3.9,3.6,3.9,3.6,3.9,,,,0,0,39,0,0,96000,"PPG",238500000
1,39,0,0,141100,2094543,"2014-03-31T00:00:00",25900,3.9,3.6,3.9,3.9,3.6,3.6,,,,0,0,16,0,0,25900,"PPG",101010000
1,31,0,0,44700,2094043,"2014-03-28T00:00:00",19487,3.9,3.9,3.6,4.2,3.6,4.2,,,,0,0,23,0,0,44800,"PPG",75999300
1,25,0,0,52000,2093043,"2014-03-27T00:00:00",50911,3.9,4.3,3.9,3.9,3.9,3.9,,,,0,0,22,0,0,71600,"PPG",198552900
1,17,0,0,21300,2093043,"2014-03-26T00:00:00",21310,4.3,4.7,4.3,5,4.3,5,,,,0,0,41,0,0,130900,"PPG",91633000
1,56,0,0,97500,2093043,"2014-03-25T00:00:00",76965,4.7,4.4,4.7,4.8,4.7,4.8,,,,0,0,38,500,2400000,77100,"PPG",361735500
1,57,0,0,108500,2093043,"2014-03-24T00:00:00",79714,4.4,4,4.4,4.4,4,4,,,,0,0,21,1000,4400000,79600,"PPG",350741600
1,32,0,0,96700,2093043,"2014-03-21T00:00:00",66310,3.8,3.8,4,4.1,3.7,3.8,,,,0,0,25,0,0,66300,"PPG",251978000
1,49,0,0,83500,2093043,"2014-03-20T00:00:00",53820,3.8,4,3.8,4.4,3.8,4,,,,0,0,28,0,0,71100,"PPG",204516000
1,54,0,0,147900,2092043,"2014-03-19T00:00:00",123620,4,3.7,4,4,3.8,4,,,,0,0,36,0,0,123500,"PPG",494480000
1,40,0,0,131000,2092043,"2014-03-18T00:00:00",53310,3.7,3.6,3.7,3.7,3.3,3.4,,,,0,0,30,0,0,71100,"PPG",197247000
1,19,0,0,30900,2092043,"2014-03-17T00:00:00",27000,3.6,3.3,3.6,3.6,3.4,3.4,,,,0,0,20,0,0,43500,"PPG",97200000
1,13,0,0,29500,2091743,"2014-03-14T00:00:00",10100,3.1,3.1,3.3,3.3,3.1,3.3,,,,0,0,16,1000,3250000,21700,"PPG",31310000
1,13,0,0,20100,2091743,"2014-03-13T00:00:00",10509,3.1,3,3.1,3.1,2.9,2.9,,,,0,0,17,0,0,25600,"PPG",32577900
1,15,300,860000,15500,2091743,"2014-03-12T00:00:00",6300,3,2.9,3,3,2.8,3,,,,0,0,13,0,0,27700,"PPG",18900000
1,25,0,0,53800,2092043,"2014-03-11T00:00:00",33430,2.9,2.9,2.9,3.1,2.9,3,,,,0,0,25,300,930000,36800,"PPG",96947000
1,36,0,0,134000,2092043,"2014-03-10T00:00:00",45350,2.9,2.7,2.9,2.9,2.7,2.8,,,,0,0,24,0,0,45300,"PPG",131515000
1,22,0,0,39100,2092043,"2014-03-07T00:00:00",16400,2.6,2.6,2.7,2.7,2.6,2.6,,,,0,0,18,0,0,32400,"PPG",42640000
1,18,0,0,23800,2092043,"2014-03-06T00:00:00",7400,2.6,2.6,2.6,2.8,2.6,2.8,,,,0,0,14,0,0,24200,"PPG",19240000
1,15,200,530000,9700,2092043,"2014-03-05T00:00:00",5600,2.6,2.7,2.6,2.7,2.6,2.6,,,,0,0,16,0,0,26400,"PPG",14560000
1,12,0,0,18400,2092243,"2014-03-04T00:00:00",500,2.7,2.5,2.7,2.7,2.5,2.5,,,,0,0,6,0,0,9900,"PPG",1350000
1,19,500,1250000,22700,2091943,"2014-03-03T00:00:00",5300,2.5,2.6,2.5,2.7,2.5,2.7,,,,0,0,8,0,0,11400,"PPG",13250000
1,14,600,1580000,14400,2092443,"2014-02-28T00:00:00",1100,2.7,2.7,2.6,2.8,2.6,2.8,,,,0,0,8,0,0,14800,"PPG",2970000
1,12,0,0,19600,2093043,"2014-02-27T00:00:00",19700,2.7,2.9,2.7,3,2.7,3,,,,0,0,19,0,0,59000,"PPG",53190000
1,13,0,0,27300,2093043,"2014-02-26T00:00:00",9900,2.9,2.7,2.9,2.9,2.5,2.5,,,,0,0,14,300,870000,14800,"PPG",28710000
1,16,0,0,13900,2092843,"2014-02-25T00:00:00",8700,2.7,2.6,2.7,2.7,2.6,2.6,,,,0,0,16,0,0,21800,"PPG",23490000
1,7,0,0,6200,2092843,"2014-02-24T00:00:00",600,2.6,2.7,2.6,2.6,2.6,2.6,,,,0,0,15,0,0,18100,"PPG",1560000
1,12,0,0,31700,2092743,"2014-02-21T00:00:00",11200,2.7,2.5,2.7,2.7,2.7,2.7,,,,0,0,6,0,0,19000,"PPG",30240000
1,19,0,0,32400,2092743,"2014-02-20T00:00:00",28700,2.5,2.6,2.5,2.8,2.5,2.6,,,,0,0,26,200,540000,45600,"PPG",71750000
1,12,0,0,16900,2092743,"2014-02-19T00:00:00",16610,2.6,2.8,2.6,2.8,2.6,2.7,,,,0,0,23,0,0,35200,"PPG",43186000
1,12,0,0,21000,2092243,"2014-02-18T00:00:00",1500,2.8,2.6,2.8,2.8,2.6,2.6,,,,0,0,10,100,270000,8500,"PPG",4200000
1,8,0,0,32200,2092243,"2014-02-17T00:00:00",8300,2.6,2.6,2.6,2.6,2.6,2.6,,,,0,0,10,0,0,16200,"PPG",21580000
1,7,0,0,21000,2092243,"2014-02-14T00:00:00",8000,2.6,2.6,2.6,2.6,2.6,2.6,,,,0,0,16,0,0,16300,"PPG",20800000
1,7,0,0,19500,2092243,"2014-02-13T00:00:00",7510,2.6,2.7,2.6,2.6,2.6,2.6,,,,0,0,19,500,1300000,26500,"PPG",19526000
1,15,200,520000,45700,2092243,"2014-02-12T00:00:00",23100,2.7,2.6,2.7,2.7,2.5,2.6,,,,0,0,16,0,0,27900,"PPG",62370000
1,8,0,0,14100,2092443,"2014-02-11T00:00:00",11000,2.6,2.7,2.6,2.7,2.6,2.7,,,,0,0,21,0,0,28200,"PPG",28600000
1,8,200,540000,23000,2092443,"2014-02-10T00:00:00",1800,2.7,2.6,2.7,2.7,2.6,2.6,,,,0,0,11,0,0,9000,"PPG",4860000
1,10,100,260000,15800,2092643,"2014-02-07T00:00:00",7300,2.625,2.5,2.6,2.7,2.6,2.6,,,,0,0,10,0,0,7400,"PPG",19162500
1,14,100,250000,17900,2092743,"2014-02-06T00:00:00",100,2.5,2.4,2.5,2.5,2.5,2.5,,,,0,0,5,0,0,2000,"PPG",250000
1,14,0,0,20300,2092843,"2014-01-27T00:00:00",4000,2.4,2.4,2.4,2.5,2.3,2.5,,,,0,0,8,0,0,13300,"PPG",9600000
1,12,0,0,25200,2088343,"2014-01-24T00:00:00",3300,2.4,2.4,2.4,2.4,2.4,2.4,,,,0,0,7,0,0,5400,"PPG",7920000
1,19,0,0,35500,2088343,"2014-01-23T00:00:00",23400,2.4,2.4,2.4,2.4,2.4,2.4,,,,0,0,5,0,0,23900,"PPG",56160000
1,15,0,0,23700,2088343,"2014-01-22T00:00:00",3800,2.4,2.5,2.4,2.5,2.4,2.5,,,,0,0,11,0,0,5500,"PPG",9120000
1,13,0,0,54100,2088343,"2014-01-21T00:00:00",44200,2.5,2.7,2.5,2.6,2.5,2.6,,,,0,0,14,4500,11250000,46900,"PPG",110500000
1,15,0,0,13900,2088343,"2014-01-20T00:00:00",13900,2.7,2.9,2.7,2.8,2.7,2.8,,,,0,0,20,0,0,31900,"PPG",37530000
1,8,0,0,4400,2088343,"2014-01-17T00:00:00",600,3,3,2.9,3,2.7,3,,,,0,0,19,0,0,17400,"PPG",1800000
1,13,0,0,29500,2088343,"2014-01-16T00:00:00",27000,3,2.9,3,3.1,2.9,3,,,,0,0,20,0,0,39000,"PPG",81000000
1,43,0,0,105600,2088343,"2014-01-15T00:00:00",23400,2.9,2.7,2.9,2.9,2.7,2.7,,,,0,0,12,0,0,23400,"PPG",67860000
1,17,0,0,11300,2088143,"2014-01-14T00:00:00",10400,2.7,2.9,2.7,3,2.7,2.7,,,,0,0,16,0,0,30400,"PPG",28080000
1,7,0,0,1200,2087943,"2014-01-13T00:00:00",1200,2.9,3.2,2.9,3.3,2.9,3.3,,,,0,0,21,0,0,25700,"PPG",3480000
